0 8429438 9972181 10183905
1 8089609 10066509 10225085
2 8183324 9967876 10267678
3 7961667 9822211 10288275
4 7883456 9919017 10229055
5 7922691 9560993 10293799
6 7650672 9772010 10284738
7 7904857 9510306 10262737
8 7556047 9600741 10283170
9 7944555 9581536 10144621
10 7834437 9635163 10240946
11 7921240 9866275 10211962
12 8079005 9694289 10280577
13 8014208 10041517 10223765
14 8335404 9896106 10208815
15 8181602 10081896 10174303
16 8442256 10075139 10177178
17 8377920 10086839 10209619
18 8338211 10280849 10185382
19 8393016 9997512 10223577
20 8090836 10189352 10256885
21 8206868 9868718 10298928
22 7858082 9952091 10288103
23 8046830 9860180 10291702
24 7939465 9764368 10284735
25 7795545 9815801 10281497
26 7846515 9499234 10299286
27 7639000 9786470 10276690
28 7915324 9503570 10232324
29 7741818 9717737 10207439
30 7902841 9657472 10239295
31 7843220 9658567 10228655
32 8006748 9946387 10234272
33 8226365 9749886 10121788
34 7999597 9991620 10186951
35 8376486 9874112 10085317
36 8189399 10051211 10146370
37 8410144 10058357 10142656
38 8313029 10026968 10181684
39 8292069 10209670 10192523
40 8352004 9921396 10223035
41 8081855 10183025 10252614
42 8284353 9824357 10186593
43 7809766 9864775 10316966
44 7957293 9793136 10295480
45 7802252 9667879 10270926
46 7808707 9794296 10253649
47 7911338 9568139 10211649
48 7792224 9858883 10238540
49 7968416 9544301 10244753
50 7753259 9833462 10300457
51 8089319 9895119 10251666
52 8064034 9842307 10198523
53 8076232 10010568 10217345
54 8309079 9936132 10280116
55 8191346 10313337 10272312
56 8324138 9951535 10361832
57 8213032 10234136 10302679
58 8443373 10246042 10272824
59 8276119 10106721 10255769
60 8285372 10302887 10283596
61 8293227 9951229 10301133
62 7997520 10093641 10253529
63 8259150 9824318 10188078
64 8013192 9957007 10128910
65 8079929 9696143 10137511
66 7805752 9594080 10279283
67 7709557 9747729 10234837
68 7892033 9519959 10220474
69 7803255 9834874 10152727
70 8135597 9622631 10132905
71 7905291 9894237 10189217
72 8095670 9890838 10290584
73 8050429 9815456 10249630
74 8248430 10127544 10147893
75 8512415 10010680 10135484
76 8279858 10365989 10245589
77 8460227 10170915 10304229
78 8091369 10210290 10336168
79 8283406 10072740 10326259
80 8218915 10084131 10331321
81 8227615 10299694 10328013
82 8227982 9978108 10362246
83 7871357 10109455 10421962
84 8049324 9825836 10427455
85 7703928 9916258 10439375
86 7922168 9838589 10361582
87 7814616 9690073 10354847
88 7875521 9898071 10274987
89 7949177 9617572 10265863
90 7707310 9848204 10249632
91 8009532 9639187 10266601
92 7880564 9929143 10296130
93 8203734 10030842 10321263
94 8121392 10026102 10382034
95 8228128 10388588 10458118
96 8368454 10156663 10416451
97 8185566 10505738 10456671
98 8423185 10271208 10497079
99 8140856 10432358 10531086
100 8282984 10317427 10515051
101 8034369 10188227 10569477
102 8108842 10332152 10478149
103 8149420 9984941 10456286
104 8058488 10247524 10372305
105 8177311 9859632 10339599
106 7915474 10021216 10316262
107 8099828 9981936 10376383
108 7927183 9883047 10368115
109 8051471 10108532 10361837
110 8176250 9946030 10363399
111 8052240 10234824 10356183
112 8330017 10008539 10333492
113 8149827 10312039 10385202
114 8554133 10335148 10326344
115 8484022 10395116 10320059
116 8518673 10530577 10300424
117 8556230 10221960 10286328
118 8391428 10543520 10305971
119 8676076 10246226 10247388
120 8425573 10480536 10298052
121 8535467 10313456 10322844
122 8276002 10122329 10227146
123 8163629 10130573 10241970
124 8181777 9814300 10256555
125 7804025 9918378 10248725
126 8080542 9665853 10228851
127 7848918 9841614 10241252
128 8053731 9785122 10202128
129 7964650 9724546 10190431
130 7989025 9917244 10136922
131 8127062 9659959 10171366
132 8014645 10072033 10170104
133 8393496 9836467 10113834
134 8248911 10191208 10133160
135 8508106 10205216 10185805
136 8423308 10099088 10130758
137 8421979 10270897 10121538
138 8432605 9945600 10072964
139 8206856 10127879 10139966
140 8303906 9827516 10175543
141 7974797 9928322 10223100
142 8139885 9806443 10176080
143 7891289 9603696 10131744
144 7854678 9725491 10164426
145 7815608 9372725 10180263
146 7596906 9584880 10093947
147 7866921 9265561 10033649
148 7675127 9444830 9984286
149 7889295 9433308 10038208
150 7755540 9390681 10096221
151 7873528 9676945 10099097
152 8051039 9475023 10035916
153 7969057 9815456 9991043
154 8293461 9643458 9958234
155 8194536 9883683 9829286
156 8508923 9815238 9805681
157 8440567 9834733 9830015
158 8431747 10007694 9853781
159 8485788 9735527 9880638
160 8089003 9910847 9975221
161 8343397 9570038 9853149
162 8014584 9569452 9842575
163 8104774 9446279 9807744
164 7924948 9349685 9827718
165 7801123 9518300 9983056
166 7813433 9276264 10045342
167 7615773 9518797 10039659
168 7879320 9267546 9970652
169 7630920 9382411 9942087
170 7941255 9447834 9908587
171 7992468 9414343 9883291
172 7978665 9673417 9911414
173 8194987 9480557 9899682
174 7909192 9690350 9942244
175 8368200 9669876 9890329
176 8250172 9844045 9905184
177 8438329 9854662 9873526
178 8291562 9657814 9838920
179 8218813 9789654 9815522
180 8354801 9527728 9855065
181 8058914 9801756 9902445
182 8197593 9421296 9909941
183 7742858 9404255 9961938
184 7985907 9446891 9934443
185 7777172 9260819 9979748
186 7580192 9364025 10041653
187 7627783 9025608 10010818
188 7508391 9346440 9992622
189 7855471 9186260 9938927
190 7816276 9406950 9795119
191 7980325 9378788 9846421
192 7948032 9317005 9855640
193 8063303 9690778 9804480
194 8245504 9452039 9816486
195 8078876 9742757 9799043
196 8489361 9644184 9719863
197 8320891 9803656 9765253
198 8411817 9647708 9718374
199 8340053 9508365 9700443
200 8250972 9629882 9661039
201 8179833 9152570 9594854
202 7912528 9321472 9581607
203 8107253 9036315 9547717
204 7821721 9075647 9540754
205 7960966 9022768 9456298
206 7861580 8826979 9499575
207 7735870 8968384 9493903
208 7815186 8676271 9511509
209 7724836 9114208 9540842
210 7995955 9025531 9595286
211 7794226 9262031 9710568
212 8104205 9440826 9746546
213 8251135 9528103 9740412
214 8420310 9918726 9657352
215 8970000 9994167 9683392
216 8878709 10388207 9684969
217 9303282 10318332 9598939
218 9306009 10582562 9553038
219 9675188 10745866 9486545
220 9764556 10747004 9473469
221 9888757 11190898 9561252
222 10133646 11140319 9685243
223 9912317 11684699 9895153
224 10196583 11686701 10130751
225 10147885 12189461 10363591
226 10569802 12548287 10435862
227 10743414 12807607 10561244
228 10972132 13451946 10676156
229 11484026 13681831 10808611
230 11450889 14282598 10972218
231 11889065 14470488 11166997
232 11934615 14952920 11292276
233 12322151 15366824 11393567
234 12357848 15519803 11626736
235 12419077 15876080 11619733
236 12609943 15595101 11662301
237 12203606 15730205 11648606
238 12308275 15351906 11671570
239 11829687 15143737 11675076
240 11558331 14747559 11571073
241 11088941 14026021 11539272
242 10561784 13775166 11413358
243 10309075 12811164 11201689
244 9614475 12329956 10908415
245 9392064 11481852 10777366
246 8565037 11150438 10889362
247 8158356 10801346 11023965
248 7813066 10268422 11025675
249 7619805 10364942 10945895
250 7586792 9807614 10884409
251 7363238 9826564 10606916
252 7761749 9530177 10316333
253 7685069 9649947 10230832
254 7817575 9861700 10396570
255 7835146 9786876 10497831
256 7732558 10088291 10501466
257 7953664 9804951 10518123
258 7886828 10140363 10374154
259 8237465 9936699 10315158
260 7919956 9988099 10396938
261 7960780 9977504 10416356
262 8000421 9801823 10363777
263 7926998 10156947 10444172
264 8176431 9867982 10341741
265 7845551 10037591 10364134
266 8004452 9838867 10422242
267 7820475 9876404 10432441
268 8017023 10015042 10382412
269 8073948 9845276 10320074
270 7861808 10037333 10376668
271 8227105 9848316 10298103
272 7992272 10187899 10335444
273 8369583 10147766 10275185
274 8181651 10183967 10309781
275 8407619 10331788 10276790
276 8461123 10198916 10285741
277 8404921 10459140 10237855
278 8574615 10152528 10216286
279 8282297 10306933 10163040
280 8457723 10074527 10202521
281 8108442 9977916 10191291
282 8150207 9961365 10251991
283 8100821 9749832 10239386
284 7898094 9917585 10224748
285 7942728 9527632 10241694
286 7725868 9708744 10217665
287 7932219 9488711 10133223
288 7842775 9589830 10111833
289 7985433 9634608 10003087
290 8007767 9437583 10052654
291 7907976 9841486 10114811
292 8212500 9638961 10092758
293 8120731 9952128 10007878
294 8523126 9892694 9987786
295 8298537 10017943 10016811
296 8511740 10130489 10023863
297 8546600 10044634 9998139
298 8341330 10233610 10048509
299 8516282 9959235 10072481
300 8356369 10279597 10107021
301 8430902 9944764 10083435
302 8151076 9970677 10121013
303 8198088 9903353 10087638
304 8087166 9615946 10087344
305 7969189 9831925 10086140
306 8124841 9527100 10063719
307 7804402 9763806 10130432
308 8059269 9576398 10120067
309 7866830 9656400 10082729
310 8097630 9762629 10025422
311 8109670 9697211 10059314
312 8079989 9983492 10159943
313 8391273 9830544 10122045
314 8211382 10117195 10061796
315 8599508 10070546 10085116
316 8266294 10149741 10151981
317 8433437 10198703 10146829
318 8350517 10021149 10142241
319 8235559 10221233 10178875
320 8485234 9946565 10074596
321 8181059 10199286 10149664
322 8341008 9905893 10184647
323 7941521 9854511 10193822
324 8148785 9813369 10065367
325 8013085 9556118 10087916
326 7923126 9850866 10110683
327 8114917 9536760 10034073
328 7892770 9782189 10036431
329 8237745 9564042 9978700
330 7915242 9628540 10012906
331 8232062 9833226 10018029
332 8238186 9829506 10045103
333 8327112 10155138 10017206
334 8588348 9932432 9987792
335 8363322 10240532 10041584
336 8709295 10035334 9994683
337 8498119 10218409 9971058
338 8770936 10280317 9962325
339 8572428 10110236 10060239
340 8401887 10333857 10171378
341 8457361 10022229 10178292
342 8195763 10206535 10140785
343 8311991 9879061 10150951
344 7975070 9921765 10205063
345 8124447 9874267 10161954
346 8011150 9704721 10207807
347 7953708 9901664 10169862
348 8085137 9603087 10167802
349 7945422 9939874 10173959
350 8238640 9781995 10185050
351 8139647 10013913 10179277
352 8265285 10071771 10195879
353 8255856 9987411 10265362
354 8356779 10356910 10220973
355 8696469 10209623 10133864
356 8510552 10433809 10132086
357 8731771 10233794 10121249
358 8621868 10458724 10123529
359 8772055 10410522 10097708
360 8544622 10200418 10131068
361 8494801 10395535 10120693
362 8484593 10001675 10190042
363 8086430 10185927 10232486
364 8270377 9826540 10188832
365 8009390 9929983 10217696
366 8102129 9977028 10253463
367 8025467 9807895 10239484
368 7962587 9990129 10208071
369 8174959 9811778 10253032
370 8011150 10124369 10266047
371 8345392 10012456 10263334
372 8257705 10162276 10185020
373 8607234 10324301 10126013
374 8537407 10196485 10177224
375 8519340 10504055 10190635
376 8672240 10242983 10219261
377 8511741 10579899 10254437
378 8807109 10403967 10210302
379 8468362 10471900 10294150
380 8531914 10391022 10296825
381 8392001 10160605 10303762
382 8315868 10269176 10212945
383 8417933 9867004 10163284
384 7974869 10153194 10309875
385 8128694 9857380 10337347
386 7884195 9957950 10343906
387 8166398 9996113 10232073
388 8088958 9910282 10264851
389 8079251 10167729 10306981
390 8172814 9927367 10416909
391 8132161 10261744 10241577
392 8617396 10194725 10178793
393 8557439 10442197 10181438
394 8793960 10499956 10146136
395 8725959 10440180 10200954
396 8734472 10700751 10202332
397 8751220 10414452 10287871
398 8641598 10747460 10359894
399 8805140 10449211 10275235
400 8483018 10552528 10333137
401 8658672 10541045 10299281
402 8625819 10413879 10286288
403 8534139 10505414 10245940
404 8623891 10171389 10291357
405 8201403 10376012 10359926
406 8348812 10108518 10392636
407 8137898 10227639 10330553
408 8364408 10250873 10376024
409 8326235 10167223 10312932
410 8323693 10398727 10293814
411 8570984 10201722 10298103
412 8419243 10569446 10294068
413 8873476 10479045 10254416
414 8702885 10687401 10214110
415 8932856 10753865 10237250
416 8734835 10561803 10312223
417 8821683 10951432 10291268
418 8996605 10720914 10360768
419 8692516 10916635 10368603
420 8897516 10643476 10397883
421 8582537 10715608 10373390
422 8668673 10542338 10298597
423 8507312 10353784 10337197
424 8383543 10575667 10379910
425 8463287 10197385 10426326
426 8147996 10481223 10497466
427 8413779 10276570 10460234
428 8238029 10363847 10409444
429 8542111 10495602 10407303
430 8440357 10410784 10487219
431 8401766 10584327 10408592
432 8703034 10430845 10355304
433 8721168 10849099 10278139
434 8941286 10583109 10297080
435 8593064 10769016 10421415
436 8715025 10797309 10480086
437 8666469 10692341 10501936
438 8654013 10879800 10465545
439 8879559 10671605 10397396
440 8660639 10918312 10391103
441 8801142 10675530 10480204
442 8517634 10752717 10517731
443 8564254 10615094 10539313
444 8360271 10422083 10528376
445 8260958 10588416 10549596
446 8371115 10263084 10543861
447 8132452 10474974 10552327
448 8436152 10333201 10519600
449 8225008 10462594 10534224
450 8400717 10540846 10528004
451 8359796 10459858 10600814
452 8335239 10739370 10630645
453 8626257 10514176 10443677
454 8551650 10888241 10496467
455 8785844 10697864 10523405
456 8600282 10877247 10532229
457 8792655 10930727 10532499
458 8586824 10743475 10617565
459 8596887 10965323 10567939
460 8717605 10649126 10619807
461 8420404 10905353 10643243
462 8580695 10628020 10673432
463 8173677 10535996 10666404
464 8302699 10443751 10600416
465 8047100 10302828 10740768
466 8060450 10523087 10734893
467 8208529 10252277 10701188
468 7939992 10504146 10708914
469 8228022 10323421 10708569
470 8039146 10438269 10637418
471 8333858 10431239 10487311
472 8352855 10302070 10453674
473 8347966 10571111 10463219
474 8478261 10374181 10479212
475 8451555 10736246 10400426
476 8678869 10441260 10370758
477 8384152 10585234 10433679
478 8601356 10687272 10454479
479 8525033 10641925 10529287
480 8484332 10769922 10504397
481 8435522 10361916 10524715
482 8168612 10550222 10570940
483 8241592 10147423 10565187
484 7909704 10232863 10585447
485 8087691 10092196 10443253
486 7936298 9930126 10500431
487 7783386 10037271 10537955
488 7933554 9786907 10447945
489 7786103 10031622 10384858
490 8056871 9763983 10347315
491 7811160 9936553 10378378
492 8098347 9963093 10292554
493 8135101 10007427 10359543
494 8166554 10239936 10305826
495 8376702 10016127 10221597
496 8227064 10374268 10266817
497 8495212 10150560 10279174
498 8222605 10331510 10302803
499 8401978 10150974 10235335
500 8208832 10013406 10216921
501 8133861 10129766 10229877
502 8219290 9824277 10285317
503 7812407 9965392 10311383
504 7962324 9617484 10290602
505 7609442 9686885 10315652
506 7749666 9556895 10299600
507 7629248 9509211 10344128
508 7638766 9671375 10305504
509 7799758 9453183 10221548
510 7718661 9759088 10122789
511 8014764 9492146 10148189
512 7776715 9693410 10176686
513 8011585 9756966 10260638
514 7969487 9884344 10345036
515 8115940 9995370 10187917
516 8233463 9779767 10137338
517 8037839 10143028 10226976
518 8315166 9922622 10244257
519 8019671 10045568 10246640
520 8311750 9967926 10208243
521 8103868 9858251 10147090
522 8024204 9853126 10146173
523 7914027 9492002 10181171
524 7665055 9699868 10183600
525 7803661 9441206 10303273
526 7526553 9585327 10321102
527 7652660 9405407 10321315
528 7527831 9345792 10292187
529 7659808 9550129 10172510
530 7659819 9303469 10256846
531 7563669 9623537 10226909
532 7902712 9439977 10178542
533 7880401 9795623 10098849
534 8234526 9799849 10054555
535 8181286 9802769 10013521
536 8218742 9999568 10109423
537 8225153 9740744 10080833
538 8012850 9950608 10063751
539 8230205 9619352 10008766
540 7977543 9842255 10069893
541 8168193 9746823 10048986
542 7880263 9588194 10114209
543 7797426 9603242 10092120
544 7747003 9270172 10094096
545 7545935 9521832 10177734
546 7622572 9137117 10191219
547 7302209 9330860 10248663
548 7645737 9363846 10241076
549 7574457 9475478 10230661
550 7663964 9552190 10173638
551 7766363 9369357 10167713
552 7691745 9724152 10181526
553 8055004 9561115 10134232
554 7882913 9884090 10141164
555 8285855 9817266 10113418
556 8063600 9836610 10122932
557 8269515 10016172 10131696
558 8183088 9740866 10142896
559 8068485 10022932 10109937
560 8306982 9723403 10042755
561 7905044 9871900 10131980
562 8118409 9686241 10138813
563 7685246 9517868 10213033
564 7709401 9551420 10135528
565 7543570 9162793 10180910
566 7390182 9438863 10242916
567 7630809 9151759 10227435
568 7423410 9468470 10266544
569 7719060 9342175 10242480
570 7479516 9366525 10221266
571 7627056 9431370 10144148
572 7761561 9330082 10123976
573 7816096 9700311 10079705
574 8087185 9543852 10086625
575 7949834 9922950 10096582
576 8350289 9798295 10021394
577 8104765 9808961 10051577
578 8206726 9931375 10056321
579 8178738 9763500 10123461
580 7988364 9985442 10159625
581 8140534 9602693 10074125
582 7784323 9759871 10148589
583 7942213 9482020 10097556
584 7703245 9425919 10102471
585 7620692 9458190 10148027
586 7632814 9200352 10173256
587 7466042 9407079 10121646
588 7712301 9172238 10152810
589 7514530 9444743 10123710
590 7737745 9342797 10126037
591 7621910 9378502 10099197
592 7878486 9616054 10060628
593 7952468 9429354 10049829
594 7925449 9790502 10041809
595 8279099 9664826 10030748
596 8044132 9974103 10139544
597 8227409 9795415 10091510
598 8021337 9821796 10139828
599 8040917 9882397 10191090
600 8030160 9717773 10249015
601 7802346 9906014 10263555
602 7945550 9577822 10280862
603 7619181 9684467 10225038
604 7704617 9437042 10287504
605 7402757 9320071 10275299
606 7638132 9426465 10082566
607 7565471 9083158 10032923
608 7628282 9490129 10024204
609 7822194 9234073 10095254
610 7559707 9455427 10098688
611 7955473 9461559 10052557
612 7805145 9540962 10092351
613 8039113 9705597 10048523
614 8084615 9561436 10073060
615 8048060 9882884 10061993
616 8243955 9648981 10046158
617 7960893 9856473 10102978
618 8181519 9766042 10086156
619 8004631 9832186 10109159
620 8149898 9867993 10021169
621 8174511 9652921 10029885
622 7892436 9887784 10103575
623 7987108 9413438 10064392
624 7575654 9493181 10109693
625 7792649 9308972 10103010
626 7505122 9319426 10185301
627 7544626 9362610 10125809
628 7655412 9224346 10132451
629 7559914 9515313 10107399
630 7820173 9256751 10107559
631 7559254 9476791 10151371
632 7846182 9448552 10123977
633 7796103 9550036 10109680
634 7999749 9733143 10017788
635 8179085 9582281 10005628
636 8102304 9846483 9923576
637 8379773 9718049 9986515
638 8105637 9975954 10060913
639 8317358 9836503 10057118
640 8047244 9775021 10069168
641 8045838 9824453 10070169
642 8042453 9580802 10120662
643 7691481 9750930 10201714
644 7911365 9420732 10173782
645 7535312 9507796 10160802
646 7716683 9422992 10176041
647 7508858 9318002 10178615
648 7602367 9442590 10122119
649 7725958 9206349 10107895
650 7658300 9493274 10014897
651 8021872 9328833 9978993
652 7716488 9543600 10090688
653 8102620 9620805 10021983
654 7982281 9583623 10014240
655 8074954 9795374 9986803
656 8250106 9606794 9971708
657 8062116 9912774 10033406
658 8335929 9649278 9971079
659 8000696 9850681 10078100
660 8235158 9874135 10116888
661 7919768 9628506 10168300
662 7894355 9756220 10093928
663 7854993 9433743 10167128
664 7571027 9598630 10184846
665 7887375 9294803 10047983
666 7645575 9473439 10024889
667 7716575 9354057 10101113
668 7597131 9232139 10111529
669 7614729 9438828 10082881
670 7800763 9239850 10103041
671 7711671 9638445 10104154
672 8047598 9409151 9974662
673 7900225 9673498 10010846
674 8138594 9684765 9999485
675 8105002 9600347 9960573
676 8200397 9847736 9915120
677 8443878 9705319 9908829
678 8151643 9969650 9979995
679 8293622 9693219 10053236
680 7843952 9752475 10117289
681 8031674 9666638 10076447
682 7853128 9540100 10103592
683 7650788 9606536 10160222
684 7763890 9242663 10140407
685 7416121 9490299 10185685
686 7655360 9178240 10124051
687 7380876 9308566 10205838
688 7547931 9321203 10233076
689 7497194 9185985 10097518
690 7666744 9449656 10023100
691 7937489 9230716 9918454
692 7706840 9446734 9909593
693 8141124 9419856 9932669
694 8018759 9732024 9979026
695 8222463 9684061 9932063
696 8188890 9627256 9883663
697 8238178 9902739 9903837
698 8456369 9659575 9886799
699 8066632 9843205 9939311
700 8225103 9603505 9986801
701 7969192 9684514 9950281
702 8071543 9704752 9990415
703 7870437 9464186 10057233
704 7782021 9573706 9991436
705 7815289 9250607 10045100
706 7463738 9436354 10159429
707 7680914 9129237 10072107
708 7549743 9302404 10002185
709 7756104 9260283 9978649
710 7689388 9218779 10005750
711 7729160 9584842 10062391
712 7976830 9342352 10022707
713 7844799 9671019 9993802
714 8131932 9449994 9965998
715 7953852 9665402 9935053
716 8288348 9731614 9895090
717 8255059 9698148 9967172
718 8218475 9954931 9958429
719 8350345 9653046 9983240
720 8043956 9899666 10039084
721 8188068 9594633 10001637
722 7895176 9676112 10075083
723 7860690 9568685 10128684
724 7701512 9312970 10106413
725 7541110 9482032 10111511
726 7767257 9247532 10098075
727 7492844 9408415 10045402
728 7801848 9222262 10017606
729 7599834 9294459 9987205
730 7801121 9383783 9940621
731 7850772 9281171 9924817
732 7832066 9549201 9906331
733 8218188 9449011 9882087
734 8042737 9815548 9974192
735 8249556 9623995 9991749
736 8093663 9736630 9981838
737 8282720 9828404 9923961
738 8245510 9646419 9953251
739 8107030 9873292 10000965
740 8280777 9633227 9944626
741 7930115 9747904 9990238
742 8204185 9544634 9903308
743 7774321 9463077 10028025
744 7843822 9462314 9982352
745 7645155 9151138 10020115
746 7483451 9365108 10032508
747 7737883 9058077 9975416
748 7542348 9359456 9954492
749 7836728 9212558 9970373
750 7620071 9336438 10014680
751 7753680 9390809 9998513
752 7754079 9198234 9985729
753 7784482 9496093 9903825
754 8048474 9305647 9895171
755 7950060 9712864 9932083
756 8325848 9564353 9869176
757 8127873 9708032 9895813
758 8252834 9746360 9892834
759 8224178 9567638 9932084
760 7938172 9708011 9969723
761 8015646 9373701 9990367
762 7837098 9638486 9969471
763 7931489 9392850 10017160
764 7599474 9342334 10072654
765 7515843 9247670 10076024
766 7502249 9090046 10088564
767 7385818 9262172 10000249
768 7654849 9037101 9988905
769 7428754 9285185 10013228
770 7663411 9159176 9987304
771 7553240 9243312 10013126
772 7723072 9361480 9943835
773 8076820 9378246 9867294
774 8047068 9698575 9845856
775 8300888 9495596 9853292
776 8086104 9798514 9868987
777 8418001 9689847 9833411
778 8181937 9606312 9852132
779 8196251 9751588 9910412
780 8040412 9512888 10067403
781 7791346 9717352 10080405
782 8000218 9421785 10067303
783 7644277 9512290 10038146
784 7873267 9288365 9930087
785 7581715 9130765 9948101
786 7546626 9231534 9996242
787 7600611 8998921 9975547
788 7533790 9364609 9957826
789 7851035 9100968 9847970
790 7574724 9302409 9886254
791 7911895 9314063 9939633
792 7712232 9325286 10044131
793 7974464 9644134 9938099
794 8017177 9398161 9930933
795 7984211 9740360 9883987
796 8291912 9521952 9843457
797 8038133 9754316 9901003
798 8250320 9638832 9887779
799 8029460 9540478 9940659
800 8026031 9710949 9965259
801 7998798 9403617 10027349
802 7855819 9648396 9927686
803 7943111 9234700 9929413
804 7603898 9367367 9982053
805 7723482 9158590 9962291
806 7433947 9032028 10013906
807 7434589 9156994 10002804
808 7535596 8972590 10026227
809 7449131 9338364 10035477
810 7718274 9131346 10004590
811 7540857 9343955 10022070
812 7878142 9292202 9911041
813 7861773 9347220 9910501
814 7918663 9564179 9881876
815 8217722 9424138 9853096
816 8036119 9745924 9872117
817 8309200 9602583 9896844
818 8064605 9718869 9889338
819 8300102 9725630 9918129
820 8104091 9647110 9992657
821 7993977 9679136 9942289
822 8009102 9254329 9953122
823 7701243 9471206 9981380
824 7873928 9216440 10000078
825 7473318 9263992 10021471
826 7633506 9181950 10006323
827 7521267 9124325 10023690
828 7615585 9307372 9959481
829 7689537 9008901 9912057
830 7506936 9323291 9963590
831 7941616 9123041 9842408
832 7598349 9313680 9914125
833 7903298 9414839 9899351
834 7826343 9286111 9921227
835 7949628 9622188 9853522
836 8194215 9516084 9925987
837 8090732 9895432 9955438
838 8302105 9589504 9944689
839 8001995 9690964 9931574
840 8175281 9701374 9966429
841 8014382 9536955 10013565
842 7879114 9557494 9948495
843 7798322 9167221 10025112
844 7550547 9396564 10011752
845 7781410 9023064 9931915
846 7439929 9159611 9993600
847 7560701 9109663 9964297
848 7449079 8988744 9974778
849 7510321 9231048 9965937
850 7679110 9031521 9974958
851 7558865 9401425 9919918
852 7940293 9096262 9807053
853 7771029 9326722 9781240
854 8028174 9363353 9776081
855 7967352 9368288 9848681
856 7944473 9608361 9889269
857 8079728 9363893 9931727
858 7898979 9706556 9969001
859 8194829 9496667 9936675
860 7954015 9596862 9914755
861 8026757 9503980 9931168
862 7892415 9272947 9958964
863 7640479 9288155 9976885
864 7737521 9013110 9960704
865 7387521 9268557 9985256
866 7687918 9043608 9946499
867 7409203 9080883 9958312
868 7543087 9123455 9943349
869 7508423 8926890 9887466
870 7553782 9247771 9886986
871 7785903 9040733 9896396
872 7540388 9316641 9894751
873 8020448 9296232 9874893
874 7763624 9352490 9844403
875 8027314 9485202 9846979
876 8070471 9401463 9886597
877 8033631 9743869 9884796
878 8241378 9477999 9882338
879 7967578 9716679 9886554
880 8222603 9487386 9921731
881 7821511 9401542 9901798
882 7866371 9353244 9918522
883 7701340 9082406 9928957
884 7581535 9308603 9921767
885 7734908 8981629 9881429
886 7396249 9117253 9881513
887 7712047 8934205 9805541
888 7419768 8990051 9905519
889 7544554 9061051 9861214
890 7597846 8899807 9844933
891 7608472 9279927 9844209
892 7860673 9020064 9763037
893 7691955 9396351 9844579
894 8132793 9297455 9768877
895 7920910 9339192 9762134
896 8105304 9495342 9784152
897 8077170 9361709 9792030
898 7979835 9640308 9838222
899 8175403 9412210 9923233
900 7870799 9647501 9888317
901 8079315 9383745 9883753
902 7839063 9387904 9866391
903 7769773 9275873 9873435
904 7698489 9061276 9921367
905 7489940 9246673 9925132
906 7649668 8898913 9944240
907 7259478 8976934 9974191
908 7545358 8911786 9896915
909 7482261 8997974 9878021
910 7573874 9142078 9884344
911 7634630 8958052 9848148
912 7582494 9337253 9903946
913 7971026 9150070 9833244
914 7805984 9467823 9808769
915 8174329 9343697 9725615
916 8037205 9391837 9686942
917 8171006 9619774 9735119
918 8203565 9335859 9712180
919 7974375 9546977 9696136
920 8145404 9247958 9714242
921 7737890 9370108 9772912
922 7932316 9224048 9811080
923 7723851 9143824 9822788
924 7684229 9240363 9872070
925 7530204 8935176 9963777
926 7333961 9208497 10027514
927 7533029 8838492 9959984
928 7230279 9015433 9952481
929 7534902 8914957 9927438
930 7387395 8956554 9959762
931 7520653 9220436 9980187
932 7798646 9050644 9825244
933 7767951 9395655 9757388
934 7996328 9124839 9772144
935 7852187 9453964 9794955
936 8207809 9520956 9761120
937 8122855 9557946 9797584
938 8233489 9640563 9721008
939 8345874 9429336 9685397
940 8017683 9589146 9753780
941 8057030 9146607 9785021
942 7775752 9343309 9763227
943 7974233 9128324 9758854
944 7640572 9045348 9853242
945 7489508 9124490 9885785
946 7669749 8842470 9805090
947 7456632 9037006 9773293
948 7772685 8873605 9724191
949 7483090 9040775 9743943
950 7734681 9024302 9794543
951 7570503 9037552 9874054
952 7670202 9179241 9818574
953 7844811 9054503 9803135
954 7725614 9416969 9793349
955 8174982 9302793 9742056
956 7996227 9546046 9733897
957 8213284 9441640 9734322
958 8010122 9317104 9768339
959 7946255 9421826 9784021
960 8045699 9135175 9741006
961 7718406 9348801 9759786
962 7996359 9036377 9717221
963 7561712 9057564 9774745
964 7757033 9069466 9792934
965 7512125 8892194 9838964
966 7443335 8973413 9796024
967 7463818 8661641 9776147
968 7348411 9013044 9798095
969 7640521 8802838 9809240
970 7393971 8908420 9804434
971 7689100 8975963 9767059
972 7642899 8883106 9717693
973 7773784 9281813 9736655
974 8060764 9086807 9644806
975 7925174 9457131 9644784
976 8224225 9304747 9647466
977 7999657 9477454 9756907
978 8125652 9413722 9711911
979 7985136 9308749 9763049
980 7976729 9483657 9743974
981 7963318 9125228 9796283
982 7720605 9355483 9810314
983 7858935 8987214 9797104
984 7552601 9111091 9825428
985 7640336 8992397 9765878
986 7514309 8824532 9810086
987 7369310 8958277 9878214
988 7475058 8726714 9871557
989 7357488 9083485 9890065
990 7687640 8876999 9792916
991 7560301 9079366 9788366
992 7844676 9139807 9665387
993 8028549 9151993 9622668
994 8008730 9423066 9650462
995 8186633 9190136 9685711
996 7945838 9494379 9698316
997 8190749 9353722 9762942
998 7958449 9462272 9754856
999 8046043 9400791 9737846
1000 7944367 9227044 9784540
1001 7757237 9421305 9874575
1002 7915243 8978440 9722392
1003 7489967 9075745 9745339
1004 7675329 8840609 9817050
1005 7358815 8859846 9800030
1006 7567503 8915648 9784977
1007 7539164 8756822 9734053
1008 7516850 9002478 9719851
1009 7652674 8720594 9735635
1010 7496805 9012666 9704955
1011 7750584 8872967 9695531
1012 7585157 9009016 9782164
1013 7815871 9181367 9742091
1014 7922839 9106112 9726335
1015 7887615 9415244 9769578
1016 8049112 9139070 9727537
1017 7857990 9410331 9730489
1018 8127352 9242763 9620810
1019 7946151 9291328 9681022
1020 7952089 9400218 9721366
1021 7880165 9004002 9728227
1022 7706921 9254457 9666370
1023 7925154 8932728 9648290
1024 7667869 9111654 9648470
1025 7712460 8877076 9690649
1026 7466238 8800026 9739846
1027 7458549 8893953 9775264
1028 7396715 8548226 9732947
1029 7404217 8897583 9631421
1030 7724531 8729037 9657937
1031 7540932 9033203 9662059
1032 7772064 8978417 9759299
1033 7720278 9036496 9730367
1034 7838990 9197712 9673223
1035 8051154 9088711 9671025
1036 7964102 9461809 9633597
1037 8203228 9154149 9635710
1038 7888828 9300026 9651486
1039 8132023 9232277 9626987
1040 7963593 9174133 9620143
1041 7822013 9277068 9712211
1042 7902590 9025477 9743401
1043 7571343 9172140 9780786
1044 7746901 8918272 9790506
1045 7369322 8974734 9848023
1046 7542303 8829947 9754401
1047 7419543 8737517 9762525
1048 7405554 8950474 9801900
1049 7518580 8692439 9811952
1050 7297730 8942267 9820873
1051 7733289 8843201 9693622
1052 7588180 9002660 9690298
1053 7872919 9107427 9709243
1054 7847295 9111960 9762407
1055 7908231 9368981 9719065
1056 8135599 9186687 9699152
1057 7901136 9391143 9648625
1058 8118206 9163678 9653149
1059 7931142 9422518 9729683
1060 8070693 9379495 9744613
1061 7918835 9247551 9705809
1062 7852053 9450347 9807881
1063 7866691 9008537 9802103
1064 7584641 9257031 9848271
1065 7690191 8935221 9891453
1066 7328884 8965289 9979935
1067 7485142 8929551 9888745
1068 7438396 8825936 9861448
1069 7484165 9007477 9775739
1070 7671683 8732967 9752928
1071 7516474 9056077 9736238
1072 7768490 8845313 9707032
1073 7586119 9045688 9697989
1074 7921048 9216517 9747101
1075 7922554 9189067 9769951
1076 7914036 9466265 9824811
1077 8122265 9296600 9814242
1078 7884807 9579661 9881943
1079 8181270 9409818 9798507
1080 7963550 9499540 9821111
1081 8124631 9531053 9818825
1082 8025239 9374970 9863615
1083 7679253 9423052 9952791
1084 7814507 9134071 9983266
1085 7531459 9344318 9961367
1086 7850248 9152971 9881857
1087 7626511 9222206 9902520
1088 7709034 9215022 9905674
1089 7627322 9054181 9976044
1090 7645401 9362477 9890540
1091 7897097 9134333 9904494
1092 7663561 9399747 9869599
1093 8134465 9356717 9851635
1094 8036739 9558502 9833435
1095 8292709 9672679 9776066
1096 8255636 9513773 9786354
1097 8150523 9779501 9848127
1098 8393259 9473745 9755948
1099 8096100 9712682 9808730
1100 8328746 9526900 9764332
1101 8001797 9460004 9816749
1102 7952970 9460550 9817943
1103 7812331 9151265 9901281
1104 7712712 9412595 9886108
1105 7826534 9089225 9858189
1106 7483939 9217557 9837758
1107 7756838 9014328 9769956
1108 7621318 8984454 9699408
1109 7690342 9044057 9689061
1110 7784807 8883489 9693999
1111 7674002 9167020 9658442
1112 8049188 8988210 9598630
1113 7903602 9311825 9590484
1114 8179693 9268794 9710360
1115 8036219 9371448 9685591
1116 8175787 9418283 9601634
1117 8189398 9124967 9510300
1118 8071484 9405322 9536115
1119 8139322 9145953 9672380
1120 7737423 9343274 9790856
1121 7979668 9135142 9716252
1122 7804493 9102828 9656922
1123 7724248 9071171 9663110
1124 7653900 8783361 9696644
1125 7386694 8855712 9633230
1126 7633706 8641561 9647771
1127 7286555 8757853 9595373
1128 7581299 8645945 9667242
1129 7413667 8665519 9620486
1130 7518374 8768171 9574325
1131 7657255 8720136 9589496
1132 7698159 9069004 9607566
1133 8005388 8847913 9528008
1134 7800294 9078596 9553030
1135 8076346 8974018 9494754
1136 7889863 9009272 9557952
1137 8036151 9254851 9569414
1138 8059564 9024178 9551022
1139 7967613 9284758 9507633
1140 8090488 8911856 9474110
1141 7686296 9092078 9585146
1142 7936216 9023034 9619755
1143 7642207 8889232 9626417
1144 7642737 8976892 9653839
1145 7469783 8525861 9632740
1146 7309741 8775130 9671673
1147 7533810 8583947 9640501
1148 7343966 8868737 9689272
1149 7589367 8679075 9688445
1150 7358250 8705744 9705581
1151 7489659 8795717 9604157
1152 7638499 8608025 9580622
1153 7631362 9010015 9582872
1154 7936221 8752823 9510097
1155 7797772 9062044 9429837
1156 8190919 9026163 9347198
1157 8027034 9018528 9406787
1158 8092452 9124319 9383557
1159 8106480 8868712 9421258
1160 7944974 9200515 9399342
1161 8149025 8875448 9417363
1162 7733918 9010735 9459203
1163 7806543 8730509 9473979
1164 7505265 8725875 9543491
1165 7558851 8750004 9507622
1166 7564492 8542423 9493728
1167 7379363 8762997 9512091
1168 7633454 8464037 9495568
1169 7371758 8699492 9560491
1170 7556303 8618552 9581482
1171 7399549 8555602 9592490
1172 7484444 8805904 9606114
1173 7776552 8707676 9565040
1174 7647741 9008381 9480027
1175 8067360 8818485 9381510
1176 7873095 9005800 9358595
1177 8141732 9020142 9362865
1178 7921004 8871321 9377732
1179 7974691 8974814 9282325
1180 8038797 8718113 9264006
1181 7721101 8851744 9313361
1182 7888732 8560282 9288345
1183 7465938 8490240 9231792
1184 7610813 8332078 9222058
1185 7416069 8175407 9185238
1186 7408512 8368870 9201181
1187 7504762 8131116 9172558
1188 7330611 8305862 9142723
1189 7669501 8068976 9004889
1190 7453682 8283503 9052383
1191 7710093 8296342 9049715
1192 7648910 8258580 9103124
1193 7825043 8707728 9170513
1194 8192306 8564982 9015100
1195 8153835 9116785 9121389
1196 8609387 9079013 9127682
1197 8485252 9384105 9127143
1198 8874453 9487100 9103171
1199 8868752 9641548 9226273
1200 9059933 9980113 9170314
1201 9372934 9840790 9033833
1202 9380473 10272449 9029880
1203 9654573 10236311 9211073
1204 9462654 10634365 9423858
1205 9664804 10958882 9749251
1206 9679497 11219877 9983817
1207 9940971 11772476 10046865
1208 10279137 11791878 10121199
1209 10292775 12412978 10251767
1210 10892237 12605165 10372300
1211 10879498 13259553 10587005
1212 11401435 13608707 10708738
1213 11573185 14028690 10952692
1214 11754724 14568756 11092736
1215 12024059 14710320 11319239
1216 11885858 15208880 11474890
1217 12101305 14943168 11466742
1218 11801421 15042249 11512793
1219 11809943 14827205 11501577
1220 11433276 14496846 11565500
1221 11166891 14404640 11499909
1222 10856401 13548911 11338328
1223 10075026 13228707 11356722
1224 9924595 12524165 11251551
1225 9171672 11863477 11026504
1226 8943023 11343710 10777931
1227 8505970 10626521 10671841
1228 7976092 10380542 10633331
1229 7698271 9750526 10660816
1230 7185045 9734578 10664036
1231 7322303 9184507 10492456
1232 6990789 9136871 10423830
1233 7243598 9072486 10212325
1234 7291334 8847114 10000580
1235 7442791 9098130 9893926
1236 7686908 8847108 9845345
1237 7468057 9212640 9922740
1238 7866953 9137967 9895271
1239 7593451 9184522 9886820
1240 7754670 9169585 9906478
1241 7734849 9079580 9879845
1242 7565491 9250295 9898735
1243 7602426 8820178 9854434
1244 7371962 9085598 9885274
1245 7616222 8917856 9929776
1246 7187040 8974016 10035562
1247 7509316 9025045 9988704
1248 7462442 8903209 9985563
1249 7393519 9147169 9938225
1250 7651610 8903124 9893999
1251 7601842 9244733 9771375
1252 7994973 9144857 9696468
1253 7908787 9321691 9697891
1254 8110700 9311142 9618915
1255 8143785 9272867 9629592
1256 8100047 9543832 9655839
1257 8303129 9341859 9656685
1258 8013665 9532565 9706000
1259 8225971 9241364 9652213
1260 7999109 9371698 9705045
1261 8094046 9375855 9691190
1262 8047733 9205730 9720713
1263 7795649 9292545 9619091
1264 7908520 8845490 9625811
1265 7529663 8966340 9602383
1266 7660496 8729549 9694466
1267 7407065 8791854 9666749
1268 7636381 8843741 9586661
1269 7587185 8560712 9588612
1270 7522542 8891214 9550124
1271 7798557 8727651 9551603
1272 7636598 9020624 9518509
1273 8047870 9011910 9512987
1274 7901388 9137831 9568669
1275 8084895 9278213 9560788
1276 8054964 9142575 9585709
1277 7971120 9339662 9570271
1278 8280363 9135112 9500336
1279 7982245 9340584 9521277
1280 8264494 9145500 9480176
1281 7868386 9109978 9581051
1282 7961691 9071499 9520699
1283 7828101 8826547 9565590
1284 7639187 9100856 9650512
1285 7679887 8689775 9703980
1286 7413780 8900682 9615329
1287 7698857 8743688 9587127
1288 7579798 8762283 9442127
1289 7753059 8786580 9376717
1290 7744649 8725270 9509330
1291 7751543 9047713 9498378
1292 7919708 8702661 9453376
1293 7820484 9131777 9479170
1294 8145870 9031249 9412544
1295 8123527 9177062 9402781
1296 8322939 9326165 9332994
1297 8233545 9119543 9430072
1298 8004795 9348575 9518326
1299 8265509 9183589 9604620
1300 8008530 9387217 9530193
1301 8212464 9134539 9523985
1302 7869647 9095931 9601188
1303 7796204 9054367 9624704
1304 7757356 8765596 9614251
1305 7603671 8966775 9546685
1306 7764835 8619960 9522982
1307 7459305 8849421 9558121
1308 7764439 8779369 9595928
1309 7541397 8774731 9597349
1310 7689409 8974307 9634177
1311 7835171 8821974 9562018
1312 7770087 9093443 9504449
1313 8131360 8995011 9435169
1314 7965730 9304947 9492113
1315 8333059 9272342 9415072
1316 8278306 9330343 9420510
1317 8249913 9386196 9424486
1318 8320219 9202656 9527109
1319 8134589 9515070 9549023
1320 8264670 9150884 9549693
1321 7893581 9299243 9616635
1322 8036983 9162996 9633653
1323 7806203 8989507 9645355
1324 7902804 9141079 9509559
1325 7880332 8737141 9576485
1326 7622221 8995952 9596581
1327 7837801 8695576 9566542
1328 7446493 8895984 9624018
1329 7785472 8831213 9561151
1330 7681511 8852699 9590059
1331 7836798 9149021 9557602
1332 7987609 8879783 9505490
1333 7958542 9341487 9510952
1334 8262225 9193153 9517607
1335 8143894 9375732 9466671
1336 8433825 9410467 9442318
1337 8300748 9310021 9439895
1338 8352633 9506846 9456857
1339 8342534 9239731 9547666
1340 8026982 9460812 9610819
1341 8300936 9231449 9510346
1342 7986077 9286741 9559111
1343 8048246 9130716 9576405
1344 7883048 9067090 9635006
1345 7831112 9202463 9615771
1346 7864639 8836085 9650851
1347 7682725 9169473 9630838
1348 7965668 8939431 9566912
1349 7769307 9034375 9584231
1350 7880694 9050643 9637266
1351 7846895 9010476 9614259
1352 7835066 9244328 9594438
1353 8197919 9132662 9603642
1354 7960281 9413246 9588530
1355 8343515 9283960 9535624
1356 8214928 9503426 9535474
1357 8361083 9500012 9545012
1358 8340189 9400326 9555473
1359 8358827 9599729 9510754
1360 8453563 9340721 9527294
1361 8116384 9543800 9549319
1362 8369514 9308142 9610674
1363 7933992 9314026 9656946
1364 8062057 9215708 9604339
1365 7917645 8961404 9605951
1366 7868321 9214648 9597758
1367 7923731 8936155 9699013
1368 7614046 9180973 9759718
1369 7935572 9061067 9683389
1370 7776587 9137444 9635313
1371 8107501 9282176 9535730
1372 8071306 9091162 9548551
1373 8106255 9469937 9539590
1374 8332759 9290804 9573083
1375 8195721 9670339 9599041
1376 8624670 9565863 9562987
1377 8391067 9671835 9543300
1378 8550959 9772044 9572447
1379 8597274 9660801 9597373
1380 8326061 9767922 9693038
1381 8416613 9446327 9677394
1382 8153847 9743511 9758114
1383 8359221 9366193 9627945
1384 8068738 9367346 9648920
1385 8114081 9339923 9585418
1386 8020619 9068602 9589809
1387 7832165 9389120 9709675
1388 7974759 9065687 9746871
1389 7741684 9349741 9764720
1390 8137850 9245951 9704018
1391 7918078 9360716 9736600
1392 8168273 9403622 9658212
1393 8240260 9316776 9591817
1394 8240179 9655310 9627625
1395 8524464 9516228 9598276
1396 8354028 9825628 9614313
1397 8633358 9630743 9606005
1398 8343739 9686161 9615135
1399 8589691 9847231 9659597
1400 8510425 9688471 9725524
1401 8373460 9817827 9640573
1402 8518960 9507865 9634775
1403 8159481 9600970 9676786
1404 8385234 9519793 9723998
1405 8078720 9431265 9715331
1406 8040883 9465535 9764043
1407 8092433 9282872 9750546
1408 7931682 9490201 9717203
1409 8131433 9162916 9716229
1410 7884702 9474047 9769620
1411 8237834 9394861 9734889
1412 8005636 9403134 9753455
1413 8266488 9614327 9669849
1414 8453435 9515438 9617898
1415 8506445 10005970 9663571
1416 8836018 9793368 9614876
1417 8512347 9930469 9649499
1418 8607052 9692149 9644751
1419 8465066 9765369 9685958
1420 8568078 9908327 9700439
1421 8530141 9632081 9714487
1422 8261425 9811275 9724527
1423 8415919 9428817 9728095
1424 8085039 9650333 9768980
1425 8238781 9462433 9751403
1426 7943084 9391195 9850518
1427 7950343 9474213 9870608
1428 8005608 9278184 9903409
1429 7822849 9565574 9870979
1430 8155573 9316935 9835509
1431 7891426 9560294 9855362
1432 8226149 9530201 9803732
1433 8205888 9573664 9736893
1434 8335497 9796027 9743523
1435 8400773 9605264 9715533
1436 8312783 9912881 9726911
1437 8682829 9674129 9615734
1438 8355118 9786630 9632499
1439 8535311 9700936 9642362
1440 8382801 9698091 9759401
1441 8282772 9777226 9791835
1442 8305029 9450823 9779240
1443 7985685 9528728 9730558
1444 8127869 9242389 9738812
1445 7778459 9425893 9836147
1446 8004610 9261829 9794687
1447 7802043 9228048 9840618
1448 7868911 9382786 9816260
1449 7845862 9073924 9845430
1450 7717683 9366572 9783388
1451 8037250 9091368 9712777
1452 7845250 9366729 9700265
1453 8311972 9575591 9734664
1454 8134932 9541955 9752805
1455 8224791 9676742 9773112
1456 8408942 9578720 9706656
1457 8216258 9768360 9713283
1458 8405270 9456594 9680783
1459 8212943 9656007 9663036
1460 8395164 9540351 9673226
1461 8214057 9467046 9595573
1462 8255492 9538469 9616939
1463 8060987 9117391 9676803
1464 7763855 9357525 9773818
1465 7934785 8938345 9692597
1466 7586114 8954682 9649490
1467 7742663 8870120 9610720
1468 7561418 8840188 9697098
1469 7547844 8962193 9696272
1470 7585920 8682264 9687823
1471 7478440 8962141 9639639
1472 7737965 8691576 9639145
1473 7735658 9058961 9547212
1474 8105218 9011640 9431589
1475 7927772 8944961 9511310
1476 7935465 9207736 9449445
1477 8122017 8915822 9390555
1478 7971688 9162956 9358334
1479 8246909 8995133 9366802
1480 7870307 9037605 9446165
1481 7899975 8841720 9415565
1482 7763394 8795943 9496761
1483 7651444 8841905 9451113
1484 7718460 8538273 9460589
1485 7514538 8819406 9451882
1486 7658430 8462278 9498680
1487 7351225 8622426 9459849
1488 7665027 8548587 9435984
1489 7375671 8408367 9480214
1490 7470897 8648181 9494945
1491 7549516 8422445 9462802
1492 7404471 8719484 9466717
1493 7825182 8623308 9425898
1494 7662995 8833515 9422501
1495 8001985 8874338 9358405
1496 7801356 8877005 9399215
1497 7898650 8978489 9366326
1498 8097576 8812006 9354426
1499 7780599 8989523 9351557
1500 7991341 8661524 9310073
1501 7649682 8759556 9373489
1502 7850293 8732066 9353361
1503 7596301 8476074 9344355
1504 7492805 8600021 9367724
1505 7418142 8265300 9471095
1506 7258203 8376878 9363655
1507 7528782 8202517 9320362
1508 7182704 8313941 9356066
1509 7430542 8333020 9310457
1510 7345413 8284084 9415121
1511 7378251 8500994 9346786
1512 7531789 8256196 9308915
1513 7508410 8657427 9331608
1514 7744744 8402133 9283828
1515 7636256 8632983 9281671
1516 7950349 8805289 9233698
1517 7880222 8642544 9273993
1518 7832054 8822878 9252578
1519 7990726 8610422 9223548
1520 7700764 8851672 9309622
1521 7899523 8592424 9301830
1522 7578243 8618011 9298213
1523 7644374 8507126 9231940
1524 7530934 8299131 9254736
1525 7408376 8450778 9283826
1526 7393864 7978908 9238111
1527 7236900 8367170 9278832
1528 7466445 8134095 9301002
1529 7260373 8246447 9303434
1530 7531365 8320547 9258120
1531 7469855 8208987 9233791
1532 7448781 8474988 9291938
1533 7764313 8381399 9244494
1534 7540253 8642592 9253387
1535 7910219 8503173 9237230
1536 7691103 8652617 9221857
1537 7871451 8672008 9256508
1538 7848301 8616308 9296607
1539 7812759 8896270 9317147
1540 7884537 8487616 9244258
1541 7567824 8643766 9217370
1542 7886189 8445404 9178445
1543 7454544 8437945 9258560
1544 7476491 8375666 9331869
1545 7285223 8181026 9349522
1546 7259849 8359294 9352000
1547 7391053 8071544 9308305
1548 7166799 8280091 9285048
1549 7437295 8034600 9290219
1550 7182165 8197897 9289810
1551 7513158 8321526 9261519
1552 7465697 8240960 9271639
1553 7608222 8547161 9150730
1554 7780414 8275680 9156307
1555 7642554 8629559 9118649
1556 8036348 8482813 9146942
1557 7780489 8703337 9189004
1558 7948351 8684903 9169666
1559 7886068 8566432 9129120
1560 7852644 8746075 9089784
1561 7926425 8424565 9181386
1562 7687122 8712993 9162664
1563 7937307 8445519 9087413
1564 7607732 8462030 9148606
1565 7600804 8250370 9106164
1566 7300394 8040659 9232062
1567 7144551 8246496 9301741
1568 7266300 7990197 9359725
1569 7124875 8282195 9325634
1570 7539206 8203919 9303457
1571 7260526 8282707 9346738
1572 7589028 8379106 9252590
1573 7669301 8430964 9240789
1574 7637083 8623394 9236149
1575 7876915 8380861 9197638
1576 7743262 8660710 9109913
1577 7948283 8478550 9166361
1578 7803837 8680821 9162906
1579 8023760 8655711 9144415
1580 7789758 8517690 9221399
1581 7674201 8641027 9258664
1582 7802934 8396017 9250461
1583 7409895 8486775 9254784
1584 7576785 8210348 9254216
1585 7238571 8241183 9287262
1586 7298851 8130639 9254715
1587 7214919 8022449 9276341
1588 7220588 8267631 9229066
1589 7417120 8010628 9165798
1590 7322081 8318426 9127537
1591 7744251 8191262 9085908
1592 7412414 8267789 9125257
1593 7696480 8348335 9099271
1594 7694607 8309741 9115310
1595 7740812 8565296 9087204
1596 7866436 8351608 9194797
1597 7695304 8691228 9207238
1598 7999577 8546845 9149535
1599 7815552 8680112 9149195
1600 7907469 8545362 9135963
1601 7758788 8438777 9150350
1602 7794960 8656144 9085600
1603 7729249 8226590 9130639
1604 7374335 8436353 9227820
1605 7569791 8140097 9159791
1606 7238880 8143969 9108645
1607 7470011 8116050 9080649
1608 7264882 7960328 9168688
1609 7349725 8215240 9135180
1610 7545828 8034740 9105178
1611 7337994 8319550 9154396
1612 7695966 8213234 9149949
1613 7620592 8468390 9101226
1614 7864753 8455740 9067509
1615 7846286 8470395 9039570
1616 7903804 8692491 9107820
1617 7938136 8429823 9116607
1618 7868751 8718453 9049585
1619 8123136 8510318 9040212
1620 7756525 8523722 9043408
1621 7821767 8478873 9107565
1622 7738741 8378258 9117243
1623 7562040 8435530 9083135
1624 7634369 8115374 9176804
1625 7259823 8306136 9211086
1626 7360533 8049432 9250175
1627 7132641 8134655 9256177
1628 7392303 8192450 9220674
1629 7382964 8116830 9217096
1630 7391248 8370618 9220807
1631 7675568 8131460 9123498
1632 7458581 8344367 9048880
1633 7851337 8216170 9022034
1634 7591112 8390731 9061231
1635 7897007 8458722 9043539
1636 7931735 8448457 9009260
1637 7983432 8694765 8973195
1638 8110106 8465049 8988790
1639 7821220 8696549 9048216
1640 7957418 8433052 9108059
1641 7678934 8512775 9132481
1642 7800547 8504299 9147933
1643 7531437 8245259 9254590
1644 7511287 8406668 9135619
1645 7640981 8089554 9078885
1646 7265289 8286780 9116071
1647 7557926 8083494 9156657
1648 7217346 8221710 9248287
1649 7405121 8186024 9264825
1650 7302446 8051563 9238045
1651 7387277 8357870 9173791
1652 7600331 8075420 9086826
1653 7615018 8504287 9073202
1654 7961212 8374212 9053064
1655 7872217 8611479 9060671
1656 8024784 8556165 9015553
1657 7966298 8474350 8988485
1658 7937691 8740906 9024118
1659 8136709 8513043 9061428
1660 7736422 8629652 9061618
1661 7826632 8279761 9063905
1662 7580157 8487454 9141872
1663 7619407 8333266 9109753
1664 7485683 8205747 9238564
1665 7365701 8318466 9173235
1666 7431844 7963458 9115741
1667 7370734 8299010 9062928
1668 7581283 8037431 9055338
1669 7361799 8132546 9049049
1670 7608210 8132122 8976462
1671 7494596 8048404 9049136
1672 7605187 8379208 9041770
1673 7866763 8199190 9011178
1674 7632407 8479114 8971900
1675 8052155 8385960 8947464
1676 7824470 8497302 8963860
1677 7954674 8525942 8979281
1678 7973837 8411598 8924605
1679 7889571 8572791 8925515
1680 7971213 8352764 9014702
1681 7746052 8599160 8974186
1682 7996284 8335878 8984001
1683 7545987 8268601 9025113
1684 7684735 8259001 9031593
1685 7451618 7979585 9039653
1686 7327539 8149479 8993660
1687 7482096 7866004 9043292
1688 7175276 8170679 9105548
1689 7529266 7996976 9043072
1690 7351957 8186203 9103433
1691 7587533 8172519 9106735
1692 7493735 8104568 9103336
1693 7675151 8494486 9049045
1694 7854859 8199968 9004306
1695 7744373 8522929 8996202
1696 8088640 8371524 8992201
1697 7778610 8565251 9047055
1698 8061029 8602437 9047451
1699 7861220 8453936 9053409
1700 7899877 8608740 8990083
1701 7857787 8289212 9081513
1702 7578406 8489906 9076113
1703 7654922 8096160 9089899
1704 7303308 8173579 9136190
1705 7440748 8144757 9127370
1706 7348750 7942105 9011535
1707 7361487 8146802 8994272
1708 7492774 7848075 8936033
1709 7307138 8155057 9018102
1710 7629203 7985083 9020589
1711 7305762 8123023 9092262
1712 7597050 8152021 9027970
1713 7668934 8189268 8988191
1714 7765430 8319153 8855971
1715 7904517 8180313 8945743
1716 7746154 8555753 8997147
1717 7921372 8323470 9021097
1718 7670216 8414434 9025480
1719 8053628 8420259 8883017
1720 7975706 8360647 8867611
1721 7958435 8553934 8827272
1722 7949756 8171886 8916410
1723 7567883 8290504 8884096
1724 7794228 7959561 8825816
1725 7409099 8014803 8835666
1726 7432500 7831755 8878999
1727 7233875 7801506 9008829
1728 7203958 8013324 9090027
1729 7299396 7771182 9085507
1730 7203416 8060527 9019321
1731 7586502 7947296 8965175
1732 7437098 8234887 9019848
1733 7787491 8246412 8953495
1734 7754519 8282037 8959711
1735 7853536 8504668 8976834
1736 7971638 8300558 9005822
1737 7818829 8624883 8960147
1738 8161660 8412799 8934038
1739 7791340 8558442 8995462
1740 7860879 8336286 8982360
1741 7660550 8229589 9007441
1742 7703232 8306554 8961615
1743 7632188 7955250 8983674
1744 7401565 8211310 8958943
1745 7473138 7836006 8985742
1746 7203628 8025368 8982638
1747 7447064 7932759 9008344
1748 7201088 7854525 9073459
1749 7274539 7987838 8979934
1750 7439126 7813309 8964232
1751 7295153 8100492 9019653
1752 7586985 7942493 8985598
1753 7511413 8247208 8927039
1754 7725321 8162844 8882171
1755 7674680 8236347 8964956
1756 7926581 8530971 8926683
1757 8026753 8370639 8950331
1758 7881336 8648215 8922774
1759 8129947 8294804 8871176
1760 7749776 8359571 8817639
1761 7970475 8270626 8843610
1762 7640848 8275786 9008190
1763 7575482 8228515 9001918
1764 7594990 7956015 8932510
1765 7385725 8079016 8920457
1766 7497663 7765745 8902988
1767 7286214 7983439 8952567
1768 7493418 7873573 8923608
1769 7293051 7880131 8959383
1770 7482987 8080205 8902604
1771 7511087 7865841 8948701
1772 7342758 8073491 8910990
1773 7696787 7923049 8937208
1774 7538066 8262011 8898625
1775 7935847 8278608 8879460
1776 7825807 8359398 8915052
1777 7896472 8432724 8915211
1778 7846607 8141016 8858642
1779 7692562 8470306 8937403
1780 7973803 8265560 8971227
1781 7619216 8431497 9014676
1782 7913197 8236059 8862446
1783 7537585 8016471 8864949
1784 7565266 8078474 8892764
1785 7404973 7787421 8965266
1786 7240291 8009271 8942289
1787 7516604 7811892 8983541
1788 7219353 7894803 8901821
1789 7437083 7768372 8924741
1790 7245094 7886709 8975781
1791 7447568 8037447 8959062
1792 7481700 7891680 8983402
1793 7466254 8208294 8900388
1794 7801761 7918345 8792605
1795 7686538 8326972 8797558
1796 7970425 8166418 8803615
1797 7724121 8206705 8799267
1798 7913882 8325430 8803662
1799 7904440 8174824 8833590
1800 7839539 8410344 8767097
1801 7968262 8027143 8746404
1802 7588706 8297273 8890491
1803 7746894 8015723 8845391
1804 7460770 7947521 8835729
1805 7548245 7845520 8775866
1806 7288974 7586979 8853740
1807 7223268 7872187 8844280
1808 7419041 7569312 8830705
1809 7212340 7859843 8789683
1810 7509648 7756511 8834845
1811 7321965 7931650 8909273
1812 7514185 8023618 8880967
1813 7662913 8014666 8867355
1814 7637785 8266088 8813165
1815 7911208 8103962 8841756
1816 7709611 8448646 8900597
1817 8066500 8317088 8841651
1818 7842233 8416723 8852974
1819 7910936 8373945 8924962
1820 7761946 8170538 8957279
1821 7670428 8374952 8933778
1822 7853014 8083966 8876280
1823 7463128 8089385 8781556
1824 7722368 7820790 8807602
1825 7401160 7936265 8861351
1826 7485982 7911799 8876938
1827 7414778 7768760 8903357
1828 7263690 7894556 8845936
1829 7468670 7672892 8826381
1830 7321633 8013769 8852054
1831 7629018 7879777 8850639
1832 7408163 7968576 8821575
1833 7767819 8169085 8814638
1834 7727819 8127687 8862647
1835 7777902 8363541 8807797
1836 8053107 8184949 8749724
1837 7821356 8421683 8793668
1838 8119278 8213059 8722654
1839 7971739 8389552 8673941
1840 8079171 8305579 8779472
1841 7787469 8162602 8832273
1842 7713601 8295223 8889435
1843 7673186 7864213 8904071
1844 7365516 8145910 8969328
1845 7550211 7867323 9013773
1846 7188184 7911062 8964389
1847 7470171 7863591 8919982
1848 7289356 7753505 8914911
1849 7327113 7937788 8907351
1850 7406154 7723501 8974109
1851 7349567 8067660 8903236
1852 7602946 7827032 8874800
1853 7494168 8179714 8847826
1854 7863747 8171691 8789762
1855 7696860 8128835 8828366
1856 7724571 8324899 8808208
1857 7878029 8012019 8770151
1858 7814743 8391500 8747037
1859 8122432 8207588 8748672
1860 7774121 8387985 8888666
1861 8005707 8326104 8864221
1862 7770506 8205349 8900368
1863 7604337 8203961 8866228
1864 7608561 7890603 8920065
1865 7356261 8063980 8916457
1866 7447149 7704677 8892698
1867 7147018 7824384 8987748
1868 7336131 7815148 8970625
1869 7107464 7726796 9014472
1870 7325827 7996976 8949868
1871 7504555 7903522 8971769
1872 7393608 8114941 8877760
1873 7853450 8036498 8851509
1874 7633382 8260640 8799619
1875 7852020 8169295 8799905
1876 7833661 8219266 8787114
1877 7909626 8368954 8800409
1878 8005066 8196579 8817089
1879 7893053 8501019 8816368
1880 8043783 8148606 8814584
1881 7675751 8274760 8853555
1882 7918302 8198271 8837330
1883 7568721 8078434 8933854
1884 7492986 8081245 8938962
1885 7390670 7699711 8897636
1886 7197764 7919727 8894941
1887 7448986 7670978 8898183
1888 7144497 7887258 8934962
1889 7400315 7742336 8917839
1890 7292636 7794102 8882142
1891 7479806 7999513 8823184
1892 7598931 7877061 8771314
1893 7638459 8238409 8741441
1894 7908507 7921215 8690673
1895 7761880 8326705 8788595
1896 8072979 8298067 8783435
1897 7936726 8289892 8714700
1898 8131465 8461066 8687484
1899 8033409 8278098 8781250
1900 7793068 8427216 8845278
1901 7863271 8078949 8869328
1902 7476625 8212383 8971562
1903 7692308 7967534 8894883
1904 7323211 7924019 8950241
1905 7401497 7977928 8938275
1906 7229821 7632828 8980675
1907 7211891 8008042 8946347
1908 7430833 7709136 8966173
1909 7148367 7948998 8944977
1910 7501675 7867039 8909474
1911 7352883 7889041 8871798
1912 7481966 7892502 8778721
1913 7670084 7936784 8785220
1914 7661096 8289181 8789624
1915 7978753 8065099 8756359
1916 7797115 8450441 8807858
1917 8022238 8227497 8808090
1918 7769842 8216256 8833946
1919 7849002 8333222 8862660
1920 7875059 8113168 8851470
1921 7690872 8353610 8872298
1922 7731644 7996046 8959317
1923 7325436 8133679 9013761
1924 7663385 8014895 8958072
1925 7410046 7992945 8950154
1926 7427544 7962432 8890722
1927 7379120 7802031 8937289
1928 7285452 8025458 8907167
1929 7554094 7678764 8836918
1930 7375005 7999727 8758499
1931 7734347 7903186 8758496
1932 7490862 7954645 8814332
1933 7705423 8079898 8759926
1934 7797973 7965247 8711705
1935 7768482 8339382 8788768
1936 8078105 8172870 8768950
1937 7765944 8367069 8736300
1938 8070816 8216562 8777864
1939 7773976 8310006 8834474
1940 7902673 8272032 8815492
1941 7715881 8044059 8886552
1942 7553091 8218541 8891733
1943 7687294 7819138 8835537
1944 7339678 8037051 8910729
1945 7514703 7782376 8846605
1946 7208917 7794436 8918264
1947 7354870 7798098 8923035
1948 7356277 7729085 8886983
1949 7194181 7844223 8864647
1950 7449726 7721260 8905569
1951 7316261 7993701 8828016
1952 7641977 7816283 8797429
1953 7475400 8022477 8812422
1954 7663900 7990535 8796130
1955 7617965 8007346 8877501
1956 7885271 8385467 8740760
1957 8156119 8183850 8730007
1958 7848612 8455648 8763833
1959 8074548 8271297 8798562
1960 7787623 8362894 8865438
1961 7924755 8235259 8760665
1962 7756237 8032006 8792853
1963 7596991 8145844 8809652
1964 7704387 7805564 8769507
1965 7419086 8043376 8821788
1966 7567460 7771752 8876277
1967 7386332 7991070 8834392
1968 7459318 7815826 8848178
1969 7337426 7719907 8854203
1970 7373991 7937441 8827423
1971 7561808 7760391 8835399
1972 7470480 8146652 8823785
1973 7819474 8055726 8825400
1974 7635525 8159126 8779776
1975 7899011 8163107 8753989
1976 7881931 8204068 8759076
1977 7850361 8337368 8723480
1978 7989705 8073295 8720158
1979 7776452 8415380 8789830
1980 7981068 8191772 8827900
1981 7760689 8361987 8853872
1982 7961002 8293321 8826451
1983 7596804 7888146 8833854
1984 7566332 8148479 8860345
1985 7651289 7826567 8792735
1986 7354840 8017039 8871735
1987 7530541 7803835 8959984
1988 7251640 7883346 8862443
1989 7506720 7743899 8762393
1990 7396621 7696619 8757449
1991 7477079 7905680 8703059
1992 7575017 7812821 8806557
1993 7426360 8199285 8909234
1994 7813239 7991153 8850276
1995 7656748 8261048 8798555
1996 7921643 8222522 8786147
1997 7769719 8174850 8818172
1998 7830499 8334539 8781192
1999 7989310 8098428 8692255
2000 7792269 8344314 8720697
2001 8041749 8107776 8757913
2002 7671167 8231131 8813439
2003 7664379 7962612 8837323
2004 7433893 7853669 8884082
2005 7436343 8001058 8879617
2006 7482154 7674700 8832183
2007 7279273 7998948 8893395
2008 7533258 7687054 8831099
2009 7142151 7803013 8923335
2010 7385463 7714372 8855290
2011 7335622 7766881 8862924
2012 7426358 7911888 8776069
2013 7676598 7869568 8861567
2014 7505579 8155900 8789881
2015 7845121 7974958 8782236
2016 7676233 8225472 8769470
2017 7956127 8170293 8695688
2018 7893273 8201820 8730915
2019 7849188 8339173 8781359
2020 7883177 7981718 8754496
2021 7588132 8221991 8817534
2022 7793725 7955922 8856382
2023 7498556 8064504 8797196
2024 7784787 7962714 8727881
2025 7448853 7754864 8791984
2026 7461255 7818483 8692704
2027 7483011 7598576 8794321
2028 7234709 7878531 8766594
2029 7464211 7599971 8780761
2030 7302277 7799785 8752780
2031 7562333 7762762 8766045
2032 7444895 7844103 8815447
2033 7630326 8135560 8794118
2034 7860608 7937481 8765081
2035 7730656 8331289 8767855
2036 8055234 8142859 8757955
2037 7835011 8321197 8663659
2038 8115871 8265727 8694266
2039 7919537 8272046 8771427
2040 7890121 8374138 8773535
2041 7827376 8058414 8846765
2042 7588360 8260810 8867268
2043 7710567 7851725 8786336
2044 7323178 7979877 8875830
2045 7484754 7773774 8849767
2046 7235622 7679070 8912516
2047 7345607 7824106 8825755
2048 7437005 7690769 8912568
2049 7183725 7915216 8871159
2050 7562575 7761663 8797889
2051 7487312 8027045 8771683
2052 7742026 7933493 8731185
2053 7661409 8007790 8767143
2054 7729309 8153292 8772068
2055 7954704 8139097 8751526
2056 7886788 8509345 8800679
2057 8086812 8253306 8814849
2058 7850467 8513334 8890914
2059 8063487 8470195 8938004
2060 7741028 8367033 8971581
2061 7777323 8427088 9024933
2062 7619968 8035596 9003252
2063 7380177 8187360 8997207
2064 7672788 7965801 9013842
2065 7316827 8144822 9021476
2066 7469002 7835226 8948683
2067 7240707 7791501 8916619
2068 7339521 7919413 8892963
2069 7347114 7631906 8923041
2070 7309068 8035985 8921152
2071 7624791 7887933 8959657
2072 7457557 8201986 8926985
2073 7836148 8197756 8897309
2074 7716921 8265004 8914325
2075 7881176 8444958 8890011
2076 8020772 8351497 8947875
2077 7882326 8662955 8955179
2078 8162507 8436537 8946398
2079 7887802 8690118 8986849
2080 8056861 8549122 9005547
2081 7883903 8525895 9005661
2082 8017512 8635715 8937637
2083 7914319 8242970 8908140
2084 7671374 8461563 8988699
2085 7678845 8165630 9121176
2086 7342648 8312096 9165771
2087 7590645 8153999 9080634
2088 7539203 8179464 9039779
2089 7591938 8263697 9054409
2090 7639979 8152863 9103100
2091 7643308 8464154 9023789
2092 7930142 8169866 8950398
2093 7782664 8457404 8911805
2094 8113395 8400000 8842301
2095 7976939 8547644 8865181
2096 8221256 8706136 8817737
2097 8212791 8472726 8833174
2098 8121142 8771951 8833555
2099 8291293 8556926 8913514
2100 7934872 8642375 8888101
2101 8090247 8398477 8854979
2102 7784313 8327957 8870873
2103 7867675 8375511 8811409
2104 7770485 8148095 8903539
2105 7545874 8195530 8859694
2106 7604255 7829570 8901920
2107 7358812 8063395 8895208
2108 7596223 7883091 8861522
2109 7425850 7858414 8793680
2110 7619815 7986097 8715782
2111 7638489 7804325 8707283
2112 7559516 8121170 8807440
2113 7876049 8016024 8802455
2114 7656336 8223432 8756549
2115 8095142 8156741 8674618
2116 7869014 8247645 8753760
2117 7932541 8347332 8745524
2118 7950907 8137853 8720378
2119 7823223 8344709 8702204
2120 8038578 8078405 8688755
2121 7679844 8158651 8702182
2122 7845925 7952669 8721162
2123 7513117 7878798 8734902
2124 7474542 7885093 8762131
2125 7387164 7565767 8764160
2126 7221002 7791194 8773217
2127 7517442 7601358 8767107
2128 7149620 7730815 8700733
2129 7350623 7514744 8746280
2130 7265556 7714430 8809618
2131 7366001 7727548 8800826
2132 7423230 7599750 8787205
2133 7482204 8028881 8775175
2134 7829735 7838062 8684583
2135 7683710 8107293 8649715
2136 8064397 8044445 8580040
2137 7874955 8160573 8619938
2138 8024489 8236371 8585153
2139 7967767 7995090 8594431
2140 7755263 8241113 8651103
2141 7882941 7925273 8701466
2142 7656258 8216136 8744637
2143 7759384 7851685 8678751
2144 7462021 7892385 8782002
2145 7581405 7859238 8737486
2146 7354748 7622200 8829964
2147 7345795 7913971 8803035
2148 7479994 7554001 8768343
2149 7221082 7868562 8793203
2150 7496264 7761576 8865498
2151 7326665 7810442 8784833
2152 7515370 7786925 8705390
2153 7618464 7754761 8703534
2154 7669384 8058567 8659947
2155 7813453 7798471 8655117
2156 7695379 8188763 8639172
2157 8009151 8022211 8598125
2158 7863755 8097131 8530614
2159 8030369 8169014 8538629
2160 7889361 8018725 8641375
2161 7730198 8189334 8663906
2162 7842204 7903191 8698060
2163 7468400 7974225 8625378
2164 7660787 7720667 8678823
2165 7278035 7668070 8735849
2166 7323356 7646373 8710572
2167 7394732 7582434 8722805
2168 7282973 7782322 8689531
2169 7523988 7461992 8648810
2170 7297478 7742475 8660256
2171 7566860 7635827 8655280
2172 7403358 7701273 8627166
2173 7716376 7870522 8542279
2174 7825108 7818971 8510081
2175 7878794 8064425 8453757
2176 8020354 7793430 8413186
2177 7598217 7890428 8484641
2178 7977380 7773073 8388630
2179 7856629 7928231 8373562
2180 7942851 7756547 8232764
2181 7881708 7573617 8233126
2182 7818120 7780971 8250649
2183 7826443 7343074 8197260
2184 7458733 7507736 8242485
2185 7579614 7129681 8229786
2186 7283982 7213870 8193803
2187 7497965 7268210 8259897
2188 7507814 7270163 8310410
2189 7554897 7573525 8335300
2190 7886630 7569461 8351263
2191 7846092 8006995 8354008
2192 8248918 7891005 8313585
2193 8293303 8349603 8299755
2194 8755122 8518250 8202860
2195 8904373 8678472 8216460
2196 9255398 9096784 8128907
2197 9487921 9059432 8200228
2198 9507566 9636512 8314006
2199 9850333 9688613 8506362
2200 9713321 10171460 8666264
2201 10042269 10432140 8920463
2202 10056166 10788262 9140398
2203 10221232 11153391 9238165
2204 10431797 11252748 9475942
2205 10355874 11870437 9672948
2206 10805078 12001742 9932399
2207 10761710 12612659 10138063
2208 11216808 12810171 10110466
2209 11292484 12975700 10138355
2210 11466670 13427989 10321397
2211 11613503 13567669 10597535
2212 11510426 14089616 10757349
2213 11785477 13948008 10811450
2214 11465576 14051908 10847953
2215 11675528 13875376 10758021
2216 11308805 13751800 10881378
2217 11101714 13644924 10798321
2218 10871974 12976420 10731534
2219 10286061 12797080 10655568
2220 10130099 11978672 10521150
2221 9395084 11509922 10330166
2222 9247091 10799086 10120679
2223 8576626 10178478 10043317
2224 8133841 9861355 10024054
2225 7751908 9184921 10103817
2226 7243298 9143875 10062833
2227 7281457 8542954 9949124
2228 6824774 8478305 9903287
2229 7071259 8232331 9693816
2230 6936527 8075222 9506999
2231 7028699 8114030 9388364
2232 7188473 7795314 9258387
2233 7274134 8284050 9162679
2234 7670014 8157455 9151508
2235 7513581 8445630 9142903
2236 7874754 8402182 9068527
2237 7702179 8402893 9081509
2238 7828436 8650221 9079644
2239 7955215 8453346 9063205
2240 7825168 8763172 9085220
2241 8120122 8491499 9080356
2242 7744232 8759543 9217392
2243 7890429 8533529 9199290
2244 7651589 8515339 9280292
2245 7673518 8614143 9266552
2246 7700892 8328439 9272108
2247 7600430 8671794 9247559
2248 7755285 8246092 9221861
2249 7324226 8340889 9219919
2250 7698391 8265228 9129134
2251 7649051 8339168 9067130
2252 7883026 8503544 8938529
2253 8033760 8345514 8935984
2254 7874116 8633952 8918775
2255 8195764 8474492 8961810
2256 7828592 8669938 9034525
2257 8185410 8543839 8911946
2258 8094946 8601213 8899850
2259 8175028 8709338 8922649
2260 8071573 8442591 8968222
2261 7904633 8653230 8915977
2262 8012800 8302150 8943722
2263 7707234 8366624 8909401
2264 7842886 8150548 8857448
2265 7615229 8087531 8863512
2266 7578931 8076555 8853571
2267 7525342 7865204 8928132
2268 7432835 8140170 8874107
2269 7745639 7901538 8816847
2270 7469357 8090530 8834596
2271 7798235 7978609 8802500
2272 7684984 8111624 8786612
2273 7907434 8357829 8781679
2274 7928006 8122547 8776928
2275 7930924 8531584 8791644
2276 8300995 8410432 8814520
2277 8042151 8534068 8713339
2278 8369073 8485513 8655508
2279 8176670 8515343 8686306
2280 8195589 8590548 8751481
2281 8079581 8373864 8819702
2282 7839886 8528618 8878429
2283 7951555 8148236 8886792
2284 7641888 8355679 8900437
2285 7778439 8091251 8881469
2286 7415874 8006189 8912308
2287 7629864 8172944 8910897
2288 7617058 8009630 8936730
2289 7487483 8159965 8881011
2290 7761446 8001088 8914735
2291 7602766 8306512 8924597
2292 7963632 8171735 8849278
2293 7769392 8355300 8910990
2294 8105057 8416940 8802693
2295 8223224 8408231 8707512
2296 8189109 8672666 8730901
2297 8321023 8389324 8758485
2298 8140696 8725926 8767232
2299 8350141 8457032 8760364
2300 8049356 8500437 8753481
2301 8228395 8555849 8708818
2302 8018991 8323730 8853514
2303 7748482 8379252 8850655
2304 7879141 8117613 8900324
2305 7647467 8327184 8837982
2306 7814813 8030211 8874522
2307 7585516 8249810 8917035
2308 7763186 8151234 8843576
2309 7634309 8017385 8904554
2310 7627076 8258272 8915325
2311 7874425 8141990 8917975
2312 7766366 8380772 8774212
2313 8138496 8293478 8781848
2314 7938686 8510245 8840216
2315 8243262 8642008 8903191
2316 8098686 8576563 8939113
2317 8129097 8675147 8852488
2318 8370814 8552990 8849245
2319 8216396 8910842 8864055
2320 8440276 8687332 8881832
2321 8139257 8803165 8934983
2322 8256319 8676976 8931510
2323 7913142 8422245 8959181
2324 7883779 8582389 8974274
2325 7912694 8235988 8945979
2326 7669927 8418408 8974396
2327 7850707 8158160 8941767
2328 7594444 8330830 8982152
2329 7925629 8341639 8923248
2330 7855807 8269944 8893779
2331 7860046 8500016 8886302
2332 8023808 8333579 8940282
2333 7940403 8818526 8979905
2334 8262448 8538322 8964300
2335 7966166 8706104 9001969
2336 8275546 8658111 8927874
2337 8187449 8735721 8922557
2338 8323805 8867864 8890008
2339 8416741 8719145 8909614
2340 8272266 8964777 8905353
2341 8474823 8662431 8871682
2342 8228557 8844300 8830907
2343 8324942 8573979 8842751
2344 7950371 8481613 8953534
2345 7834828 8497063 8996852
2346 7808804 8216352 8994705
2347 7682465 8582907 9006886
2348 7925767 8327013 9066193
2349 7748199 8560300 9007315
2350 8071104 8500699 9011410
2351 7895482 8572178 9039041
2352 8043298 8757633 9063994
2353 8013727 8528535 9112694
2354 8124507 8945770 8965482
2355 8531871 8798410 8928543
2356 8291761 9026920 8971613
2357 8570828 8869056 8839433
2358 8408769 8906058 8887641
2359 8524159 9105400 8961900
2360 8452173 8833679 9000282
2361 8295119 9070075 8988997
2362 8380674 8796152 9063877
2363 8059764 8881791 8990190
2364 8248212 8707029 9036888
2365 7967190 8667466 9001026
2366 8005408 8660732 9007017
2367 7996554 8498704 9026792
2368 7855646 8738271 9116697
2369 7983823 8452815 9150981
2370 7781733 8728948 9151321
2371 8144060 8624120 9084566
2372 7940755 8731481 9088040
2373 8217507 8857855 9035155
2374 8273419 8698801 8981619
2375 8337078 9074809 8968001
2376 8610711 8925093 8942371
2377 8412817 9200794 9023351
2378 8779238 9097086 8956206
2379 8547033 9319561 9108772
2380 8607725 9297853 9081204
2381 8484927 9052257 9122266
2382 8448770 9337639 9136665
2383 8414071 8864791 9134309
2384 8076665 9094467 9134626
2385 8314625 8785904 9093211
2386 7989199 8862620 9164933
2387 8196123 8899097 9147189
2388 8024177 8690728 9125814
2389 8003951 8888575 9091690
2390 8144082 8731306 9264682
2391 7974515 9079120 9240755
2392 8253635 8871283 9144737
2393 8224822 9172046 9190459
2394 8419212 9171560 9179762
2395 8392637 9138846 9208892
2396 8636065 9501959 9086157
2397 8864297 9257362 9087533
2398 8586001 9515315 9138266
2399 8789687 9315145 9220971
2400 8415883 9385710 9226303
2401 8651341 9392568 9192736
2402 8529980 9273485 9236474
2403 8377357 9355510 9247165
2404 8333234 8952916 9356242
2405 7934942 9037439 9311470
2406 8198909 8893940 9309775
2407 7990689 9066469 9351337
2408 8251938 9150500 9311634
2409 8113866 8884555 9281950
2410 8036291 9069467 9312230
2411 8186883 8851623 9317860
2412 8038106 9187790 9270635
2413 8461278 9197076 9361332
2414 8294377 9316023 9267642
2415 8662732 9414864 9189882
2416 8737416 9367338 9173971
2417 8657782 9581507 9188766
2418 8822713 9333575 9158568
2419 8530038 9544224 9179309
2420 8763907 9355427 9212290
2421 8445084 9418892 9281170
2422 8590297 9434638 9274350
2423 8411426 9205212 9276238
2424 8315213 9345294 9260315
2425 8383349 9009793 9354645
2426 8041523 9147533 9291784
2427 8167010 8900102 9369876
2428 7920070 9021759 9354783
2429 8131078 8946483 9315223
2430 8072945 8935497 9329361
2431 8173612 9226059 9332207
2432 8263509 8980794 9325944
2433 8203354 9327946 9296272
2434 8557449 9138000 9225300
2435 8391595 9385319 9305724
2436 8704361 9498993 9271130
2437 8559704 9368038 9328775
2438 8603017 9644762 9317140
2439 8716189 9386604 9327513
2440 8398203 9621843 9408590
2441 8537692 9230382 9322074
2442 8169158 9335655 9439851
2443 8244180 9139088 9394018
2444 8011554 9028476 9449272
2445 7905135 9086603 9445983
2446 7980762 8807717 9452187
2447 7845972 9087378 9415059
2448 7995731 8793874 9451135
2449 7658898 8842496 9397933
2450 8031460 8811016 9306136
2451 7986713 8880724 9350411
2452 7992559 9002881 9341374
2453 8137251 8792782 9302096
2454 8071603 9072397 9188245
2455 8434712 8875237 9108837
2456 8276454 9114384 9085903
2457 8455010 9057534 9117516
2458 8208992 9018088 9298492
2459 8208528 9200963 9257304
2460 8289352 8880486 9248289
2461 8078484 9091513 9220038
2462 8202638 8771675 9229272
2463 7836271 8810175 9187103
2464 7970096 8675267 9245583
2465 7706696 8555250 9290886
2466 7611486 8627919 9329830
2467 7645586 8347932 9324301
2468 7446115 8551716 9292702
2469 7722524 8232096 9158676
2470 7477241 8401207 9133299
2471 7693918 8324649 9124893
2472 7600370 8320275 9177619
2473 7842275 8615172 9042940
2474 8185381 8478433 8938651
2475 8113624 8875486 8982357
2476 8352000 8641956 8968071
2477 8064688 8821184 9011064
2478 8209685 8727764 9023607
2479 8039805 8605514 9023991
2480 7940099 8644179 9046043
2481 7984661 8310313 8963420
2482 7749671 8575473 9018020
2483 7924326 8244377 8956520
2484 7542749 8364979 9062319
2485 7716759 8286741 9024817
2486 7557357 8083352 9026343
2487 7476337 8239172 9014901
2488 7535858 7978648 9019651
2489 7390580 8222225 9009035
2490 7615475 7944098 8933037
2491 7505967 8205912 8978506
2492 7708890 8194418 9005710
2493 7595223 8222420 9100587
2494 7783643 8477912 9007606
2495 8064042 8332860 8949236
2496 7929308 8701486 8968681
2497 8179654 8495873 8959401
2498 7863687 8641458 8971735
2499 8169400 8640045 8994486
2500 7999529 8603369 9030723
2501 7904944 8525095 8901933
2502 7884478 8287839 8992659
2503 7669751 8468214 9002476
2504 7763748 8119778 9009412
2505 7421533 8184974 9031590
2506 7608247 8142667 8979997
2507 7527877 8016003 8991040
2508 7507576 8242735 8999835
2509 7547366 7883262 9025310
2510 7316054 8179437 9023602
2511 7556460 7869183 8955728
2512 7292228 8091227 9003099
2513 7792295 8228806 8947896
2514 7841401 8275636 8940706
2515 7835504 8473903 8962184
2516 8052009 8300011 8929726
2517 7789001 8630146 8961503
2518 8070542 8388334 8958224
2519 7816968 8485441 8953285
2520 8055197 8483263 8901357
2521 7863479 8283234 8885304
2522 7818001 8434887 8936593
2523 7785631 8039407 8928431
2524 7449672 8265599 9007696
2525 7643869 7912597 8954583
2526 7284709 8037668 9000915
2527 7406940 7962035 9049375
2528 7233077 7834855 9069708
2529 7372461 8058668 8921042
2530 7706268 7942540 8890734
2531 7494823 8264945 8928075
2532 7632504 7997280 9053951
2533 7390283 8323853 9115724
2534 7772414 8327047 9026037
2535 7772780 8313763 9000205
2536 7888167 8576113 8967321
2537 8005138 8330361 8926610
2538 7886759 8715204 8928004
2539 8150731 8430216 8939995
2540 7890363 8560486 8972644
2541 7975767 8411107 8920329
2542 7795954 8218089 8933440
2543 7714339 8376296 8925078
2544 7748832 8055971 8959767
2545 7502365 8304557 8985633
2546 7677560 7979228 8918391
2547 7364140 8122016 8989875
2548 7484716 8027755 9004802
2549 7313350 7949288 9040962
2550 7310943 8190633 9102581
2551 7599052 8034709 9062500
2552 7467796 8327983 9021365
2553 7912838 8303720 9007068
2554 7713388 8335009 8908456
2555 8010024 8383319 8822849
2556 7969397 8380559 8848707
2557 8077778 8640706 8811993
2558 8235824 8430730 8855638
2559 7988684 8738313 8933184
2560 8120957 8458434 8958049
2561 7836414 8525791 9027927
2562 7903015 8475518 9048499
2563 7667751 8204073 9051167
2564 7600381 8375041 9049239
2565 7662148 8064646 9038499
2566 7360077 8219835 9011493
2567 7633212 8069908 9060045
2568 7387459 8162659 9050405
2569 7547532 8154270 9051765
2570 7517488 8044567 9011220
2571 7483608 8320308 9029863
2572 7756132 8089347 9011659
2573 7560783 8472835 9047826
2574 7934105 8357826 9058475
2575 7740902 8500771 9024822
2576 8081210 8634123 8993449
2577 8091613 8505776 8942682
2578 8076272 8797272 8982250
2579 8152431 8471606 8969300
2580 7858305 8688029 9073680
2581 8036505 8499850 9091172
2582 7709554 8471619 9095661
2583 7684424 8296552 9080687
2584 7582337 8126467 9054087
2585 7623914 8321248 8956582
2586 7617318 7928446 9037567
2587 7326527 8160442 9021325
2588 7601159 8066943 9083292
2589 7359967 8180054 9026979
2590 7585601 8149264 8975588
2591 7607446 8137982 9007339
2592 7568342 8317330 8950859
2593 7844438 8166324 8987433
2594 7765045 8619853 8973190
2595 8128881 8515515 8955062
2596 7946137 8630283 8952735
2597 8089443 8656795 8983346
2598 8125914 8600578 8975840
2599 7987329 8787593 9015880
2600 8072000 8485748 9085273
2601 7879671 8799078 9068088
2602 8053930 8478052 9083656
2603 7629418 8454778 9131903
2604 7721647 8329719 9032753
2605 7563566 8108656 9080885
2606 7382093 8271790 9103440
2607 7591921 8032405 9081874
2608 7345931 8204763 9078445
2609 7589275 8074538 9101650
2610 7466899 8214660 9094905
2611 7694443 8283650 9026572
2612 7700060 8140912 9011656
2613 7664585 8401715 8988870
2614 8048973 8262814 8897362
2615 7796291 8537949 8905461
2616 8202374 8493578 8861828
2617 7914423 8545566 8958823
2618 8110418 8667275 8936086
2619 8058912 8526318 9008526
2620 7985473 8752210 8958978
2621 8180983 8431848 8929336
2622 7876996 8624903 8965571
2623 7992188 8344919 8979999
2624 7691056 8360485 9036504
2625 7810302 8316121 8942567
2626 7563089 7970462 8995206
2627 7439297 8227431 9044917
2628 7513840 7956866 9098636
2629 7175196 8188925 9204687
2630 7561239 8140002 9157650
2631 7448384 8253967 9131653
2632 7733634 8416773 9087564
2633 7752859 8402167 9183802
2634 7749770 8717167 9118081
2635 8043072 8460435 9055958
2636 8020497 8835863 8947448
2637 8375286 8633466 8886703
2638 8089913 8763252 8978107
2639 8195735 8768498 9002959
2640 8070959 8541544 9023540
2641 7939939 8751178 9036142
2642 8110000 8497580 9019498
2643 7699284 8556998 9031133
2644 7822790 8300869 9091801
2645 7557518 8282594 9088579
2646 7675577 8346917 9117210
2647 7547957 8214790 9195548
2648 7540825 8377504 9095392
2649 7683487 8073655 9074935
2650 7567684 8393990 8979213
2651 7889456 8231265 8950464
2652 7645442 8273361 9014580
2653 7817895 8460197 9006908
2654 7910332 8329978 8927707
2655 7836206 8608423 8954579
2656 8202942 8514059 8989620
2657 7988281 8768081 8989575
2658 8299092 8696334 9004799
2659 8172706 8767763 8935137
2660 8183664 8712098 8907735
2661 8082128 8479049 8932614
2662 7935898 8649613 8950341
2663 8058951 8329546 8945410
2664 7679596 8499681 9029282
2665 7868201 8259827 8996188
2666 7551362 8229478 9076002
2667 7620963 8300784 9037540
2668 7568372 8030487 9041634
2669 7502252 8315391 9006017
2670 7732555 8187928 9078560
2671 7495106 8444674 9112019
2672 7752985 8250191 9112038
2673 7670796 8463507 9064064
2674 7898900 8570368 9001137
2675 7993515 8482305 9078729
2676 8025331 8806055 9012362
2677 8177052 8594656 9070758
2678 8008026 8852591 9005778
2679 8267855 8652536 8995033
2680 8144293 8732698 8953334
2681 8251708 8770465 8911889
2682 8057481 8503050 9014606
2683 7808619 8653905 9103097
2684 7879738 8242044 9113507
2685 7648164 8436827 9029485
2686 7843718 8270768 9046091
2687 7454157 8177738 9127102
2688 7526375 8199078 9089982
2689 7588233 7993913 9030679
2690 7552908 8347677 9025818
2691 7794303 8099506 8995612
2692 7601353 8433398 9043967
2693 8020149 8406029 8982946
2694 8030022 8527009 8866779
2695 8257662 8707440 8803280
2696 8214127 8556539 8878140
2697 8129645 8844023 8919510
2698 8207618 8559064 9011285
2699 7967728 8812823 9077990
2700 8162185 8638128 9018656
2701 7899183 8625049 9114730
2702 7939316 8629205 9088558
2703 7869239 8374286 9023614
2704 7776612 8592106 9000551
2705 7885099 8196019 9009308
2706 7583917 8362080 9031703
2707 7768727 8239153 9039417
2708 7523628 8218184 9090240
2709 7598771 8280575 9068066
2710 7591351 8108543 9135036
2711 7449061 8358973 9094932
2712 7730844 8191373 9117350
2713 7688494 8633100 9055515
2714 8121273 8606242 9009059
2715 7903200 8656121 9052710
2716 8098667 8807114 9057967
2717 8066207 8510172 9054594
2718 7988666 8841783 9036104
2719 8216349 8641713 9077032
2720 8105162 8948748 9058433
2721 8217774 8729423 9030023
2722 7910675 8642837 9132594
2723 7956425 8617368 9031961
2724 7826294 8312946 9111604
2725 7611781 8477664 9113107
2726 7721208 8124381 9122119
2727 7474762 8358606 9119549
2728 7741376 8193934 9050057
2729 7524234 8266397 9125699
2730 7663166 8416936 9080450
2731 7786983 8289550 9065351
2732 7616682 8584709 9113709
2733 7977858 8423546 9097046
2734 7828790 8688553 9094722
2735 8029326 8635329 9079824
2736 7952237 8605247 9045973
2737 8120614 8840420 9030885
2738 8324211 8754817 8942150
2739 8197692 9026669 8994007
2740 8327131 8741919 8986673
2741 8002530 8854438 9062380
2742 8079707 8636382 9125926
2743 7751518 8569016 9183256
2744 7701218 8561968 9215876
2745 7661504 8268442 9182321
2746 7495274 8451071 9171983
2747 7759694 8247791 9168394
2748 7539313 8433128 9144182
2749 7690391 8269372 9150341
2750 7577625 8228133 9071618
2751 7763387 8420399 9015228
2752 7910531 8237613 8907340
2753 7789857 8635174 8995724
2754 8251824 8527119 8964793
2755 8039390 8733178 8982735
2756 8247853 8673706 8969060
2757 8191166 8814977 8993198
2758 8279264 8983383 9019016
2759 8350009 8738908 9013332
2760 8098393 8942303 9037023
2761 8158856 8549541 9062026
2762 7775046 8694050 9145549
2763 8002547 8520381 9049160
2764 7705018 8402379 9099022
2765 7723106 8538833 9119838
2766 7669690 8197745 9193250
2767 7407838 8411516 9171112
2768 7574491 8173970 9260735
2769 7437093 8446220 9233421
2770 7793599 8400130 9158537
2771 7638745 8379105 9186828
2772 7758963 8598169 9162815
2773 7897406 8512763 9182665
2774 7840639 8796588 9195820
2775 8181569 8711344 9166572
2776 8069209 8911204 9105718
2777 8339558 8847725 9034733
2778 8203457 8806868 9056001
2779 8246916 9028942 9019949
2780 8254022 8707548 9088093
2781 7952573 8910849 9042236
2782 8130797 8562386 9066180
2783 7798286 8638724 9081149
2784 7888817 8548994 9159380
2785 7680288 8375932 9180429
2786 7623660 8543445 9130117
2787 7743100 8198069 9114651
2788 7517467 8430938 9106670
2789 7849287 8231657 9081589
2790 7593444 8408878 9086025
2791 7823061 8378724 9041749
2792 7850191 8420777 9060289
2793 7858095 8621251 9081835
2794 8043805 8472267 9088766
2795 7890149 8862427 9094588
2796 8299754 8686045 9083915
2797 7989652 8758433 9061917
2798 8284626 8829993 9032235
2799 8091514 8732940 9084654
2800 8091326 8921770 9068560
2801 8261625 8624555 8979705
2802 7956003 8793301 9010038
2803 8179810 8478598 8956889
2804 7797522 8586866 9057414
2805 7879089 8455672 9056386
2806 7606427 8239749 9133673
2807 7594798 8495762 9194823
2808 7665494 8207865 9172335
2809 7492587 8435858 9149395
2810 7891458 8391827 9139726
2811 7623068 8452842 9170897
2812 7833287 8516544 9134623
2813 7783602 8392937 9094130
2814 7955332 8716419 9038976
2815 8225364 8584002 9055945
2816 7986905 8887314 9068853
2817 8358077 8665803 8961154
2818 8194242 8881798 9016235
2819 8273739 8906888 8993297
2820 8117874 8697729 9060353
2821 8006402 8888595 9075598
2822 8195766 8593150 9063096
2823 7812061 8694351 9085056
2824 7903077 8413389 9150172
2825 7665283 8504962 9164290
2826 7738335 8491202 9168679
2827 7705787 8324462 9162550
2828 7560562 8496828 9171526
2829 7749194 8224685 9136725
2830 7626010 8593327 9146986
2831 7747155 8440151 9267426
2832 7487231 8506656 9307565
2833 7887882 8578047 9075707
2834 8019792 8500943 9047739
2835 8048154 8901202 9129820
2836 8342727 8747522 9109490
2837 8058393 9024820 9164279
2838 8325476 8804484 9072403
2839 8059163 8863085 9171642
2840 8178865 8915847 9142176
2841 8201356 8836883 9137136
2842 8030782 8970587 9146984
2843 8066964 8564479 9160513
2844 7721071 8697296 9182825
2845 7901232 8482731 9163569
2846 7641964 8440185 9139046
2847 7717077 8521955 9178597
2848 7574351 8287609 9277239
2849 7470835 8567906 9260675
2850 7790045 8368211 9249631
2851 7593325 8643773 9220355
2852 7943930 8553949 9192905
2853 7933026 8659468 9088457
2854 8187806 8804697 8988335
2855 8233933 8650511 9010617
2856 8139784 9000075 9073973
2857 8340200 8716874 9077385
2858 8106340 8958371 9107988
2859 8428200 8919935 9107036
2860 8237453 8963174 9069122
2861 8288455 8988331 9121614
2862 8121790 8778881 9192766
2863 7981421 8917439 9129629
2864 8006828 8478802 9153444
2865 7618387 8581934 9142477
2866 7816855 8404917 9204056
2867 7554684 8493567 9279019
2868 7682499 8502395 9163772
2869 7643222 8339129 9273653
2870 7602988 8578429 9173307
2871 7817544 8301257 9181933
2872 7552920 8602854 9258685
2873 7981341 8631705 9182805
2874 7945970 8764575 9225202
2875 8140618 8916608 9111671
2876 8298241 8836192 9130766
2877 8208067 9093910 9080989
2878 8408449 8833061 9121952
2879 8126517 9043541 9126967
2880 8448442 8926828 9012301
2881 8283273 8887670 8978767
2882 8264124 8857681 8956408
2883 8037922 8586423 9114252
2884 7712722 8745740 9246825
2885 7877615 8402009 9231120
2886 7547068 8574123 9204703
2887 7741376 8391206 9154034
2888 7577346 8402071 9221929
2889 7695805 8531894 9164321
2890 7826657 8350009 9158737
2891 7706082 8705758 9163953
2892 7983993 8464643 9184757
2893 7697432 8699027 9229435
2894 8084134 8692273 9142300
2895 8011941 8704866 9174934
2896 8220756 8964110 9094019
2897 8250481 8774035 9129202
2898 8166349 9111605 9213769
2899 8394859 8879764 9169826
2900 8082522 9002385 9130435
2901 8357997 8881615 9096798
2902 7997266 8742060 9180531
2903 8059531 8816155 9045312
2904 8031935 8516595 9077900
2905 7745320 8738510 9167764
2906 7753406 8368109 9296899
2907 7604323 8570221 9139088
2908 7917083 8417352 9054337
2909 7721143 8472431 9110186
2910 7825237 8597357 9202169
2911 7814674 8405342 9195989
2912 7767983 8756108 9137888
2913 8098404 8588459 9152345
2914 7949464 8805536 9103213
2915 8285847 8777375 9101173
2916 8236487 8888266 9116787
2917 8307499 9144232 9138892
2918 8457856 8953554 9129896
2919 8228292 9216618 9180411
2920 8392085 8937412 9190416
2921 8061571 8982153 9160892
2922 8294381 8885641 9138727
2923 8061127 8728042 9136035
2924 7991910 8806892 9136020
2925 7974284 8481096 9150944
2926 7615776 8654001 9218188
2927 7821111 8398503 9252804
2928 7517994 8493564 9241023
2929 7796338 8486262 9192547
2930 7647150 8399195 9217203
2931 7710915 8647865 9238141
2932 7945845 8490902 9206548
2933 7885688 8868855 9173782
2934 8316302 8668281 9058172
2935 8024878 8895438 9185746
2936 8298735 8935416 9131362
2937 8231557 8912999 9133326
2938 8269402 9073144 9119344
2939 8310887 8872671 9176102
2940 8177067 9141735 9166144
2941 8420157 8931988 9151492
2942 8112050 9082046 9223905
2943 8141538 8848310 9173198
2944 7846880 8609472 9201444
2945 7797287 8691241 9201907
2946 7764275 8386477 9243050
2947 7575449 8726029 9260909
2948 7801409 8432492 9265645
2949 7460078 8486951 9262058
2950 7701592 8441810 9263083
2951 7649240 8467382 9181836
2952 7919925 8721143 9142430
2953 8076797 8644018 9196140
2954 8162398 9088351 9106708
2955 8506914 8906161 9081342
2956 8202663 9121565 9128427
2957 8403944 8956391 9089887
2958 8350155 9011825 9126160
2959 8467734 9251106 9129825
2960 8408380 8936812 9136512
2961 8082934 9136174 9238254
2962 8259054 8886809 9255836
2963 7996442 8967076 9226037
2964 8057063 8795860 9227600
2965 7866074 8667503 9281712
2966 7748611 8763100 9307957
2967 7818045 8497347 9326850
2968 7516601 8614264 9291355
2969 7886967 8467320 9257525
2970 7744031 8741389 9264219
2971 7977163 8653730 9207226
2972 7860888 8625372 9213311
2973 8006789 8878125 9175224
2974 8269539 8729664 9152624
2975 8129680 9139520 9188330
2976 8508303 8985623 9166824
2977 8136535 9083269 9242329
2978 8377026 9095837 9187919
2979 8264975 8991734 9230835
2980 8226585 9150892 9223828
2981 8309867 8906173 9223432
2982 7967764 9151564 9287070
2983 8170822 8837012 9251129
2984 7862754 8859445 9281604
2985 8034462 8716813 9146548
2986 7935960 8539461 9133303
2987 7841101 8775218 9142443
2988 7914446 8462143 9214605
2989 7587715 8741925 9291783
2990 7948196 8555887 9275153
2991 7721540 8735888 9297668
2992 7944540 8762537 9319402
2993 7972223 8726376 9292276
2994 8087769 9069949 9196214
2995 8388831 8896544 9188995
2996 8255775 9271799 9216206
2997 8523583 9112110 9236992
2998 8311903 9300615 9307758
2999 8469427 9268793 9229685
3000 8296874 9086391 9305264
3001 8229095 9243097 9296139
3002 8250528 8925622 9377684
3003 7969810 9182020 9370601
3004 8077597 8841629 9420827
3005 7786833 8881937 9396768
3006 7862713 8765005 9364067
3007 7797990 8567223 9237593
3008 7717568 8728837 9262530
3009 7850459 8488942 9281116
3010 7716585 8849298 9300658
3011 8086571 8723772 9241608
3012 7929205 8917389 9260091
3013 8210457 8935841 9189777
3014 8228132 8893191 9213451
3015 8191564 9114258 9177897
3016 8367387 8906506 9232732
3017 8144317 9271334 9310135
3018 8517259 9165690 9310443
3019 8280705 9295220 9283913
3020 8435439 9214525 9254569
3021 8234534 9039809 9309648
3022 8149850 9135283 9260584
3023 8239436 8771573 9242023
3024 7815849 8890982 9243910
3025 8026478 8704763 9332932
3026 7705628 8787992 9366371
3027 7976803 8745198 9229542
3028 7922897 8656720 9230088
3029 7825675 8877694 9264660
3030 7920789 8584003 9306507
3031 7753214 8883749 9277157
3032 8157063 8725214 9220800
3033 7900952 8885523 9276526
3034 8196121 8970913 9239006
3035 8205781 8952573 9235294
3036 8381218 9257310 9170029
3037 8537000 9043175 9165852
3038 8323913 9376514 9226159
3039 8567428 9155285 9311785
3040 8255066 9220236 9258435
3041 8451598 9228458 9297635
3042 8148594 8920780 9234208
3043 8186355 9075645 9194901
3044 8163424 8658705 9182497
3045 7852965 8947638 9263478
3046 8060115 8749079 9279145
3047 7772655 8755518 9291005
3048 7974986 8779317 9272284
3049 7855205 8691366 9296350
3050 7834594 8902541 9313722
3051 7967374 8661361 9343175
3052 7848596 9018634 9332745
3053 8220617 8886034 9355964
3054 8071746 9110070 9335271
3055 8383362 9238103 9298576
3056 8420507 9196985 9287648
3057 8384421 9400413 9246814
3058 8584976 9208069 9268893
3059 8315353 9438726 9302038
3060 8443383 9146663 9341573
3061 8191573 9230156 9366013
3062 8324654 9200425 9328175
3063 8226517 8990657 9264289
3064 7960902 9079682 9348808
3065 8073284 8756147 9352176
3066 7770145 9022181 9448657
3067 8001336 8827839 9426560
3068 7653658 8831354 9451530
3069 7893413 8913999 9403202
3070 7936061 8892827 9434850
3071 8006014 9247521 9458937
3072 8276238 9038609 9459715
3073 8152453 9484433 9484640
3074 8626412 9407715 9427153
3075 8372231 9549676 9483712
3076 8568999 9592490 9492560
3077 8587425 9496041 9459899
3078 8650885 9814650 9352777
3079 8836832 9523468 9385081
3080 8533643 9729473 9440129
3081 8659664 9484483 9484380
3082 8248511 9530218 9560286
3083 8458366 9499387 9554282
3084 8273753 9331714 9567262
3085 8173600 9401573 9505660
3086 8250001 9049484 9467663
3087 7933959 9284162 9510441
3088 8305465 8993107 9316097
3089 8029735 9107800 9367301
3090 8218688 9151906 9339981
3091 8190358 9070709 9362499
3092 8263112 9342291 9315230
3093 8456943 9119241 9313822
3094 8292368 9438098 9297624
3095 8684116 9312118 9252333
3096 8499146 9482306 9241523
3097 8683307 9487691 9282538
3098 8585667 9397895 9303706
3099 8555833 9587690 9310481
3100 8653337 9288173 9313942
3101 8347854 9507211 9314783
3102 8498131 9191310 9341202
3103 8160319 9298255 9417444
3104 8263402 9187187 9381219
3105 8321791 9022245 9278762
3106 8049589 9042035 9245604
3107 8091025 8725584 9325379
3108 7848074 8948136 9283646
3109 8048703 8610465 9230152
3110 7928560 8837898 9236939
3111 8043265 8813739 9187313
3112 8034057 8768949 9232480
3113 8213210 9098263 9125394
3114 8443909 8928697 9167462
3115 8260645 9277908 9194745
3116 8611919 9105586 9070797
3117 8358594 9140766 9075053
3118 8535291 9235837 9116464
3119 8433448 9045300 9179290
3120 8281315 9183687 9170084
3121 8481919 8974077 9194869
3122 8203727 9189990 9185688
3123 8310352 8863509 9162460
3124 7868872 8729396 9223208
3125 7999572 8795337 9191575
3126 7870801 8580691 9255631
3127 7803254 8768246 9159934
3128 7916936 8462190 9233097
3129 7696209 8685814 9163861
3130 8008966 8561481 9117746
3131 7802587 8620473 9110173
3132 8145516 8807664 9061727
3133 8191404 8794999 9091679
3134 8288172 9138825 9056903
3135 8507851 8922236 9096573
3136 8347284 9226816 9072293
3137 8620128 9090321 9084362
3138 8414175 9156127 9100806
3139 8537828 9205131 9079832
3140 8469057 8968947 9119619
3141 8325509 9157125 9113268
3142 8537184 8905792 9058286
3143 8234524 9125072 9116835
3144 8335819 8801805 9106665
3145 8044354 8806869 9161907
3146 8051411 8757138 9128118
3147 7990198 8548461 9155328
3148 7826322 8766280 9135843
3149 8019572 8462782 9140774
3150 7712394 8729467 9151603
3151 8049367 8586155 9168465
3152 7901708 8813813 9184723
3153 8214603 8889562 9104397
3154 8254319 8851942 9141242
3155 8220433 9148748 9111534
3156 8518983 8980742 9100086
3157 8346512 9240840 9085360
3158 8693927 9038641 8999020
3159 8433302 9129962 9065741
3160 8496759 9165612 9075399
3161 8433886 8990469 9142782
3162 8257528 9136013 9125837
3163 8381138 8800403 9116854
3164 7986056 8979592 9155600
3165 8234917 8753513 9173748
3166 7936237 8726326 9137751
3167 7999229 8711203 9132957
3168 7832036 8401649 9132263
3169 7745645 8636120 9080150
3170 8033967 8411305 9003385
3171 7977820 8672608 8851533
3172 8360895 8537247 8790932
3173 8150146 8626254 8803522
3174 8372838 8692392 8734594
3175 8359539 8506315 8715743
3176 8309069 8831926 8732155
3177 8577440 8592236 8687327
3178 8410902 8907845 8680581
3179 8641167 8711582 8682193
3180 8374050 8815003 8736318
3181 8556836 8868590 8710109
3182 8497075 8742679 8800411
3183 8405184 9046023 8862113
3184 8651444 8819464 8807736
3185 8410831 9093516 8836520
3186 8830519 9034397 8780237
3187 8653720 9151393 8838015
3188 9024654 9417784 8818417
3189 9251931 9405708 8741098
3190 9360309 9869168 8646994
3191 9822794 9945606 8739890
3192 9889114 10574063 8894452
3193 10306944 10758160 9017754
3194 10466837 11365629 9250112
3195 10752190 11852800 9496451
3196 11006492 12118869 9619040
3197 11424373 12798433 9551941
3198 11843836 12937060 9744341
3199 11791235 13589015 9960039
3200 12298560 13757912 10101821
3201 12160289 14095477 10309112
3202 12369988 14357317 10427305
3203 12381296 14376710 10541952
3204 12212909 14803393 10826324
3205 12322056 14607158 10911487
3206 12092349 14773827 10924665
3207 12257053 14556708 10911062
3208 11804086 14347234 10901683
3209 11654559 14281314 10998980
3210 11333589 13733338 10954020
3211 10970016 13658794 10872901
3212 10966927 13045497 10744607
3213 10444921 12841638 10577435
3214 10462912 12132670 10271133
3215 9916193 11665111 10084906
3216 9715926 11372463 9991744
3217 9286326 10774693 10128160
3218 8727914 10763339 10247848
3219 8606944 10197424 10244335
3220 8139161 10173451 10182988
3221 8118292 9711089 10109623
3222 7874917 9443027 9978370
3223 8032295 9329782 9637558
3224 7896630 8930046 9669882
3225 7734531 9175035 9628023
3226 7850558 8748003 9574601
3227 7541768 8840871 9524918
3228 7807202 8785057 9508417
3229 7768484 8890071 9509562
3230 7960287 9104819 9483834
3231 8032241 8918574 9502448
3232 8067395 9391415 9482601
3233 8404445 9273099 9507622
3234 8320113 9606030 9444346
3235 8706800 9618344 9446967
3236 8602040 9613872 9396704
3237 8619042 9660976 9385736
3238 8737300 9565815 9420993
3239 8759227 9939799 9382406
3240 8981462 9692111 9387670
3241 8658920 9801609 9361437
3242 8764733 9568319 9383047
3243 8495169 9490022 9386284
3244 8440203 9478595 9386143
3245 8419135 9181041 9373660
3246 8173311 9324514 9325475
3247 8347264 9004655 9332494
3248 7952307 9151353 9356334
3249 8258559 9070337 9348630
3250 8119879 9019020 9318701
3251 8234784 9123549 9221729
3252 8420932 8947690 9170369
3253 8328603 9332113 9180501
3254 8729284 9200521 9127811
3255 8500703 9453424 9112415
3256 8850231 9440308 9140211
3257 8661526 9492186 9169082
3258 8802464 9640224 9166427
3259 8730674 9375620 9208832
3260 8541557 9603940 9267115
3261 8832592 9332876 9189419
3262 8573050 9478290 9168913
3263 8790088 9332723 9110474
3264 8321713 9082632 9215328
3265 8194933 9103875 9240833
3266 8147508 8834615 9287422
3267 8030676 9160526 9300532
3268 8302017 8849228 9215652
3269 8034799 8999746 9206362
3270 8327799 8970251 9155428
3271 8073160 8954091 9239186
3272 8325561 9183561 9175095
3273 8491967 9080818 9174279
3274 8473419 9398384 9071330
3275 8762489 9193534 9115985
3276 8688163 9614383 9125581
3277 8993347 9491738 9082941
3278 8684075 9431177 9135825
3279 8872066 9592731 9019527
3280 8947442 9387560 9050982
3281 8737570 9617342 9058958
3282 8824250 9311836 9155568
3283 8574834 9403779 9059824
3284 8657289 9217169 9100338
3285 8385744 9096806 9141258
3286 8405698 9195503 9113270
3287 8438866 8964887 9167800
3288 8218252 9179064 9172048
3289 8484122 8951317 9172989
3290 8233056 9143545 9143598
3291 8484129 9070778 9128286
3292 8357110 9127436 9172624
3293 8473635 9370012 9214052
3294 8587763 9249521 9239822
3295 8608965 9593228 9177675
3296 8971003 9315258 9005508
3297 8739169 9575287 9031567
3298 8937054 9435073 9052510
3299 8769765 9484265 9118630
3300 8780659 9571117 9118788
3301 8811820 9339879 9131994
3302 8602150 9495825 9109622
3303 8767738 9215041 9123876
3304 8364125 9366512 9243455
3305 8572076 9244670 9196669
3306 8336424 9091040 9172812
3307 8324982 9176152 9178740
3308 8416660 9011347 9216007
3309 8273091 9299533 9166379
3310 8551316 8980251 9115753
3311 8364180 9218529 9129176
3312 8691801 9169190 9086908
3313 8539857 9237951 9101002
3314 8727103 9476892 9058018
3315 8833123 9331412 9068614
3316 8768497 9624495 9045485
3317 9071638 9459023 9056481
3318 8853460 9713821 9050045
3319 9115498 9660392 9106108
3320 8879231 9608010 9180436
3321 8838120 9757853 9236127
3322 8866697 9481081 9245006
3323 8556038 9637314 9217766
3324 8773021 9279634 9156414
3325 8429406 9395121 9150171
3326 8559077 9164280 9155139
3327 8383616 9180084 9214589
3328 8491856 9360327 9187821
3329 8443241 9007545 9213311
3330 8208832 9291303 9230743
3331 8557544 9119062 9220642
3332 8456178 9451606 9259604
3333 8716165 9411427 9158040
3334 8758319 9461855 9145578
3335 8891255 9644721 9073284
3336 9049658 9546695 9103363
3337 8929855 9844322 9127395
3338 9181766 9669205 9137497
3339 8996136 9892797 9152425
3340 9213725 9791887 9105747
3341 8890840 9660796 9207085
3342 8869502 9720358 9147144
3343 8878241 9380364 9192136
3344 8516166 9615442 9246960
3345 8803701 9385404 9237315
3346 8504179 9495333 9205952
3347 8679162 9351552 9193722
3348 8402944 9187581 9208424
3349 8595798 9343028 9073558
3350 8758907 9160179 9057303
3351 8610282 9508640 9061791
3352 8912097 9363398 9144521
3353 8686545 9583559 9159266
3354 8984268 9634955 9144613
3355 8915824 9632502 9205483
3356 9075954 9967208 9118994
3357 9196137 9697714 9123610
3358 9039272 10031092 9178827
3359 9230420 9833707 9231093
3360 8973773 10012789 9276294
3361 9078848 9891614 9268337
3362 8893760 9696856 9265825
3363 8964120 9878472 9180867
3364 8938878 9489014 9168318
3365 8566940 9690952 9261703
3366 8676604 9329656 9337273
3367 8361081 9462662 9376127
3368 8566788 9366649 9340408
3369 8467213 9308516 9280670
3370 8580047 9615131 9294388
3371 8794055 9473440 9229835
3372 8595662 9733571 9313739
3373 8927286 9552455 9248730
3374 8889174 9852281 9233419
3375 9184524 9950062 9241968
3376 9046624 9850275 9270059
3377 9163351 10119805 9167589
3378 9331395 9883144 9213784
3379 9184132 10252826 9244335
3380 9360149 9957959 9262608
3381 9091957 10140709 9300298
3382 9242219 9984158 9270811
3383 9011749 9822432 9284853
3384 8881393 9887858 9340903
3385 8930786 9615827 9325724
3386 8640421 9815199 9323577
3387 8863668 9578642 9313710
3388 8584228 9660116 9367647
3389 8781315 9586792 9312457
3390 8695045 9527107 9327850
3391 8779062 9805453 9279201
3392 8987761 9649354 9295963
3393 8890512 10001619 9287424
3394 9247821 9877072 9295855
3395 9043070 10104261 9266450
3396 9353617 10114454 9248794
3397 9243969 10061926 9244304
3398 9343527 10356517 9235587
3399 9396826 10041801 9268116
3400 9224148 10392494 9310931
3401 9531979 10135273 9258157
3402 9146180 10180950 9288216
3403 9163878 9988962 9294417
3404 8865283 9764756 9374985
3405 8834388 9999766 9396370
3406 8943771 9709281 9407703
3407 8697791 9956820 9395911
3408 8984832 9702384 9380821
3409 8692657 9813780 9428299
3410 8973839 9868102 9407570
3411 8875379 9834143 9391142
3412 8877331 9972892 9367173
3413 9083019 9821080 9359848
3414 8983319 10168601 9384418
3415 9299597 9968574 9337288
3416 9221286 10267360 9355469
3417 9446562 10346162 9356765
3418 9274520 10227621 9455994
3419 9185724 10398850 9448849
3420 9333777 10170762 9475486
3421 9113223 10375583 9430405
3422 9245532 10055517 9417312
3423 8785584 10060424 9453861
3424 8980363 9974689 9538590
3425 8743112 9917864 9622744
3426 8619673 9965823 9578886
3427 8722753 9707537 9597215
3428 8470187 9789136 9478942
3429 8793690 9596320 9453892
3430 8606438 9900974 9539841
3431 8877887 9804939 9378383
3432 8865760 9772241 9394542
3433 8851154 10009555 9444935
3434 9075158 9868299 9426489
3435 8994385 10287134 9423329
3436 9371095 10136128 9429320
3437 9114027 10344493 9467561
3438 9441447 10347301 9422612
3439 9241804 10254022 9474241
3440 9115417 10289372 9468221
3441 9150567 10027455 9507229
3442 8797011 10157687 9563317
3443 8970887 9825647 9537196
3444 8491123 9845740 9603446
3445 8642763 9774600 9626205
3446 8463619 9604118 9528401
3447 8508666 9719616 9494554
3448 8646483 9371102 9365567
3449 8499932 9693970 9394378
3450 8657354 9389416 9418644
3451 8396358 9594091 9508082
3452 8550533 9636214 9619820
3453 8561283 9629107 9520928
3454 8740636 9868469 9395966
3455 8875768 9665435 9427511
3456 8733746 9995545 9444023
3457 9035220 9754057 9394734
3458 8779894 9939894 9378008
3459 8988586 9864816 9379342
3460 8881384 9775279 9316088
3461 8857965 9871972 9288521
3462 8744086 9436565 9292356
3463 8523157 9641428 9279147
3464 8628744 9221802 9224480
3465 8255928 9272580 9268105
3466 8321106 9194765 9300805
3467 8195416 8994061 9226403
3468 8282414 9163319 9158904
3469 8410787 8865107 9096938
3470 8249334 9176148 9105365
3471 8496522 9014957 9214032
3472 8236068 9193264 9222112
3473 8425399 9112274 9186696
3474 8445914 9067052 9137310
3475 8554351 9437548 9117782
3476 8834908 9287233 9107333
3477 8687370 9597467 9120098
3478 8991327 9368662 9072358
3479 8649177 9473720 9111389
3480 8810053 9348006 9056358
3481 8588644 9218685 9081489
3482 8483287 9346372 9062708
3483 8552951 9025753 9090510
3484 8212089 9130697 9048604
3485 8420381 8807919 9035863
3486 8076152 8897781 9104857
3487 8187939 8803748 9055866
3488 8077448 8636745 9084133
3489 8088466 8901515 9042172
3490 8235697 8621066 9069393
3491 8031572 8957647 9123190
3492 8447636 8836323 9050020
3493 8244701 9006451 9014899
3494 8650068 9143617 8978880
3495 8534513 9120837 9017635
3496 8635504 9357117 8958812
3497 8773736 9104265 8964598
3498 8487924 9344054 9008035
3499 8767457 9115969 9030251
3500 8564826 9353790 9026805
3501 8895261 9376105 9022078
3502 8497186 9070620 9018265
3503 8393184 9179907 9032467
3504 8360131 8740623 8969892
3505 8101275 8933968 8978188
3506 8267853 8653916 9041710
3507 7990570 8695825 8967865
3508 8171166 8658026 8969510
3509 8041706 8571442 8983961
3510 8131976 8809732 8963273
3511 8283102 8560724 8972704
3512 8064117 8877100 8994306
3513 8454823 8736858 8985287
3514 8375360 9030718 8945560
3515 8573455 9086956 9005225
3516 8511740 8998078 8993903
3517 8572415 9292852 8970420
3518 8758098 9063460 8932849
3519 8517624 9316686 8996609
3520 8755659 9053205 8929464
3521 8433600 9113154 8943886
3522 8535568 9040101 8923363
3523 8294426 8783217 9029190
3524 8193313 8930778 8972861
3525 8300090 8611525 9028469
3526 8094951 8868420 8936410
3527 8330672 8560253 8873892
3528 8043343 8684953 8952847
3529 8129393 8752978 9018372
3530 7970483 8477812 9060555
3531 8086487 8801418 8973749
3532 8296841 8572577 8989953
3533 8127268 8976900 8962382
3534 8522431 8897707 8988475
3535 8348737 9005710 9002011
3536 8585354 9123022 8951708
3537 8577844 9019291 8991979
3538 8559591 9363278 9034511
3539 8807838 9113760 8996187
3540 8590133 9359336 8923932
3541 8818709 9145872 8925557
3542 8381077 9104200 9017415
3543 8505002 9134810 8993006
3544 8406315 8778397 8913352
3545 8303018 9008265 8916903
3546 8331190 8557399 8918876
3547 7923407 8749032 9015912
3548 8130272 8504677 9018351
3549 8008707 8624058 8930842
3550 8232792 8680746 8864720
3551 8279916 8628438 8895519
3552 8142134 8834470 8924862
3553 8327465 8683973 9018129
3554 8193370 9055440 9080526
3555 8601658 8996615 8990294
3556 8406796 9030423 9048521
3557 8601015 9166776 8996272
3558 8601153 8993963 9005747
3559 8544668 9229060 8907331
3560 8706934 8991441 8992731
3561 8476703 9271442 8962406
3562 8679473 9105233 9023504
3563 8302673 9028370 9063868
3564 8261392 8932481 9050140
3565 8097637 8641458 9085396
3566 7958400 8817153 9054376
3567 8176381 8543011 9076989
3568 7967297 8769721 8984882
3569 8319840 8642760 8925307
3570 8034851 8637721 8954503
3571 8188808 8803060 8943477
3572 8240190 8637341 8956608
3573 8231148 9019855 8920564
3574 8540851 8797122 8923918
3575 8449271 9148925 8895028
3576 8785665 9055199 8864870
3577 8582863 9119789 8920013
3578 8686138 9237570 8928990
3579 8628625 9003015 8967844
3580 8568592 9330367 8988256
3581 8725781 8988569 8975383
3582 8358070 9205804 9030725
3583 8618262 9032943 9013393
3584 8210057 8871410 8984807
3585 8298013 8898320 8979615
3586 8260161 8718882 8980751
3587 8050908 8818445 8961368
3588 8242226 8466073 8928727
3589 7945785 8733295 8951987
3590 8219911 8639687 8932174
3591 8115768 8706122 8942094
3592 8303090 8878444 8916974
3593 8364402 8693694 8904410
3594 8361221 9101125 8927261
3595 8707782 8923975 8914020
3596 8564366 9237305 8883733
3597 8826285 9113464 8896578
3598 8553818 9196236 8972640
3599 8614669 9219288 8953448
3600 8584267 8983072 8981871
3601 8517911 9306105 8962220
3602 8592034 8934937 8987154
3603 8324474 9072428 9013311
3604 8357365 8804783 9022769
3605 8165836 8728459 8964552
3606 8190614 8774547 8969563
3607 8135657 8601548 8994566
3608 7953358 8822843 9036788
3609 8189883 8550638 9000155
3610 7937795 8791579 8996676
3611 8236387 8640647 8963469
3612 8136811 8753116 8918696
3613 8348550 8926136 8929817
3614 8448462 8782147 8898774
3615 8439302 9157978 8898165
3616 8784987 9000904 8879293
3617 8503253 9210176 8918560
3618 8761678 9115286 8938457
3619 8563329 9147734 8918576
3620 8684948 9277578 8918495
3621 8701767 9076342 8948627
3622 8459897 9233028 8948489
3623 8584003 8872888 9001120
3624 8197844 8973864 9064072
3625 8365422 8787334 9067099
3626 8008989 8728255 9101548
3627 8015068 8764700 9084400
3628 8077926 8422303 8926239
3629 8020280 8782866 8938335
3630 8276239 8530171 8907005
3631 7989822 8773481 8882718
3632 8383476 8664188 8866314
3633 8359493 8826401 8789338
3634 8538646 8996770 8827722
3635 8608568 8927680 8853979
3636 8700294 9298863 8790470
3637 8930829 9053829 8788385
3638 8717671 9328835 8790545
3639 8857368 9105209 8852474
3640 8465537 9108877 9001626
3641 8409540 9042609 9021045
3642 8367135 8781886 9006230
3643 8248087 8989835 8949399
3644 8298634 8620924 8985402
3645 8175872 9007259 9010227
3646 8259220 8721341 9052112
3647 8004146 8685832 9017422
3648 8105862 8714602 8982144
3649 8169788 8571123 8971878
3650 8013301 8790144 8894028
3651 8346471 8578384 8880241
3652 8159692 8891608 8889921
3653 8499415 8789162 8843537
3654 8376947 8922618 8909837
3655 8566969 9114345 8886395
3656 8714794 8990335 8857460
3657 8609460 9249667 8871857
3658 8821901 9045016 8911456
3659 8545557 9231328 8863886
3660 8752520 9008358 8882274
3661 8533102 9011988 8889340
3662 8521961 9030984 8884805
3663 8464290 8796833 8901801
3664 8278430 8926057 8906829
3665 8424090 8683673 8905519
3666 8033283 8819345 8974637
3667 8200384 8626611 9000211
3668 8024535 8633239 8941254
3669 8128601 8754844 8977740
3670 8219877 8632754 9002715
3671 8098834 8880449 8949130
3672 8404408 8631353 8895179
3673 8164215 8941274 8961461
3674 8546887 8885797 8909273
3675 8456741 8912709 8847884
3676 8715799 9230853 8861843
3677 8743987 9047536 8865912
3678 8640380 9325709 8873511
3679 8765853 8988858 8925429
3680 8507903 9209068 8950827
3681 8821862 9130319 8881244
3682 8431723 8988299 8944502
3683 8430814 8998902 8963840
3684 8306077 8655175 8935699
3685 8139528 8872998 8951768
3686 8276290 8506464 8911493
3687 7945821 8684531 8938846
3688 8159659 8465392 8874970
3689 8032640 8529712 8850692
3690 8111121 8628883 8829379
3691 8114774 8428460 8910651
3692 8079331 8817836 8890938
3693 8401865 8631076 8894672
3694 8251417 8931021 8846830
3695 8585978 8906075 8873438
3696 8454205 8945346 8801419
3697 8644314 9055061 8755370
3698 8695648 8967337 8855924
3699 8568694 9216350 8838322
3700 8721801 8905594 8851708
3701 8423323 9113564 8865913
3702 8614933 8879681 8831837
3703 8360963 8812532 8833869
3704 8208090 8746623 8924392
3705 8155070 8482237 8921234
3706 8030011 8718914 8923310
3707 8136898 8380654 8911832
3708 7831190 8559126 8927380
3709 8161296 8492904 8864172
3710 8039256 8542228 8851534
3711 8162519 8604549 8836491
3712 8194303 8536346 8899611
3713 8210163 8826972 8825270
3714 8490439 8673153 8840702
3715 8282871 8941600 8857989
3716 8641052 8900733 8819133
3717 8624002 9007041 8823138
3718 8667922 9146810 8823135
3719 8665790 8943144 8820814
3720 8484882 9180629 8863783
3721 8700258 8798485 8798803
3722 8334126 8936684 8819830
3723 8403988 8678584 8835923
3724 8160068 8618307 8841665
3725 8234610 8709040 8802473
3726 8194656 8396691 8778009
3727 8026885 8662465 8814327
3728 8224459 8348312 8802281
3729 7889017 8529881 8837705
3730 8161303 8449640 8809789
3731 8009354 8450727 8812308
3732 8206377 8601608 8739560
3733 8366010 8597632 8779979
3734 8296049 9022553 8847748
3735 8686597 8782560 8770431
3736 8587016 9067767 8700071
3737 8850588 8965910 8685746
3738 8648637 8965895 8715192
3739 8650331 9100829 8805129
3740 8607544 8852612 8895085
3741 8479207 9114195 8831766
3742 8663876 8806431 8786338
3743 8295455 8896781 8837544
3744 8400958 8648282 8808440
3745 8105410 8485475 8862768
3746 8070850 8618649 8852826
3747 8100079 8375186 8906098
3748 7882374 8621750 8918797
3749 8116744 8448924 8962755
3750 7894929 8627077 8957709
3751 8148703 8573783 8926386
3752 8190900 8583740 8798524
3753 8272211 8803202 8710096
3754 8497649 8657389 8735172
3755 8411627 9033622 8740433
3756 8831641 8881418 8758809
3757 8661665 9133270 8706079
3758 8847357 9010787 8673370
3759 8633910 8890592 8749508
3760 8638052 9162915 8784107
3761 8657406 8790923 8831098
3762 8370349 9010326 8819500
3763 8614431 8770755 8801276
3764 8181620 8754936 8840643
3765 8314640 8706464 8788129
3766 8150284 8510678 8879722
3767 7995516 8636674 8891476
3768 8106166 8351872 8905557
3769 7863062 8702534 8958861
3770 8162404 8442014 8880696
3771 7981542 8578452 8871200
3772 8313746 8658859 8850956
3773 8224558 8651724 8919272
3774 8389193 8989470 8830699
3775 8529119 8801676 8865610
3776 8547263 9178098 8757994
3777 8906576 8915893 8685373
3778 8578467 8997021 8705444
3779 8746863 8943310 8701387
3780 8548002 8825281 8745422
3781 8542110 9006648 8757103
3782 8467828 8657314 8827125
3783 8141331 8779823 8807916
3784 8370353 8534024 8808953
3785 8145183 8649516 8823467
3786 8271580 8652078 8823803
3787 8066601 8395180 8857356
3788 7963806 8620629 8895541
3789 8195818 8386539 8853928
3790 8014498 8655761 8797704
3791 8263417 8443446 8802990
3792 8052560 8572750 8790745
3793 8334743 8642595 8774445
3794 8403601 8694973 8808142
3795 8359534 8993952 8859681
3796 8697361 8815959 8766651
3797 8557557 9082428 8689510
3798 8854989 8958084 8720357
3799 8587408 9018559 8714334
3800 8661789 8984949 8720001
3801 8591837 8906863 8809059
3802 8467112 9063628 8841170
3803 8512710 8663303 8857451
3804 8077049 8744830 8884369
3805 8348939 8617974 8912590
3806 7975435 8612963 9014294
3807 8040662 8664122 8962704
3808 8106860 8425788 8923448
3809 8030351 8768008 8955982
3810 8207051 8448989 8952501
3811 7994658 8678825 8802818
3812 8244898 8486345 8824856
3813 8084805 8682804 8837421
3814 8458536 8854014 8793260
3815 8514028 8761086 8790252
3816 8505698 9114016 8794545
3817 8798579 8917490 8791345
3818 8546728 9163488 8749979
3819 8771949 8892695 8710289
3820 8505657 8954486 8790392
3821 8665763 9063017 8834996
3822 8530924 8771742 8817636
3823 8392247 9000891 8831654
3824 8463729 8629930 8844974
3825 8166747 8834955 8860807
3826 8311252 8600929 8909951
3827 7965532 8485864 8886629
3828 8062036 8441804 8763782
3829 8174308 8417737 8834019
3830 8058480 8661362 8803431
3831 8243666 8373527 8805002
3832 8138164 8640007 8710581
3833 8465389 8577163 8702822
3834 8320965 8671045 8708226
3835 8432241 8802995 8773234
3836 8409162 8751498 8885951
3837 8271359 9025458 8924723
3838 8477395 8717439 8881559
3839 8265276 8991912 8831686
3840 8556980 8846633 8857470
3841 8375748 8906070 8823542
3842 8553264 8910358 8716650
3843 8638075 8689442 8584721
3844 8292686 8792225 8692473
3845 8361827 8439161 8776904
3846 8005622 8551230 8782474
3847 8121210 8314027 8814334
3848 7870668 8318537 8797735
3849 8091185 8487384 8799080
3850 8077619 8333940 8829991
3851 7990994 8600249 8772845
3852 8298807 8397970 8757428
3853 8165762 8736130 8760054
3854 8570776 8756836 8698294
3855 8366325 8724059 8719450
3856 8549866 8911688 8723766
3857 8650346 8822254 8718283
3858 8509565 9085179 8737940
3859 8657974 8694577 8697013
3860 8417392 9032650 8786606
3861 8644308 8807586 8774432
3862 8362237 8788079 8775523
3863 8473893 8823679 8759109
3864 8333557 8508714 8808200
3865 8124792 8739820 8821158
3866 8227630 8390123 8886005
3867 7870723 8543777 8901570
3868 8017211 8302312 8880701
3869 7857098 8297366 8841937
3870 7992796 8488982 8827498
3871 8096812 8336281 8841018
3872 8007582 8679340 8847185
3873 8224731 8399613 8908709
3874 8101950 8764449 8872452
3875 8551997 8764709 8731947
3876 8570833 8815357 8618020
3877 8628320 8980290 8630058
3878 8737336 8743067 8671442
3879 8553564 9066207 8674878
3880 8735396 8795625 8731598
3881 8408244 8978082 8806006
3882 8488601 8790078 8825732
3883 8289422 8686829 8806881
3884 8236739 8721258 8791452
3885 8236488 8403192 8837538
3886 7959650 8635078 8841041
3887 8175614 8371786 8870600
3888 7937555 8542533 8832520
3889 8149669 8403691 8807135
3890 7894509 8279502 8787207
3891 8051482 8485892 8747672
3892 8251469 8347786 8773324
3893 8106286 8684542 8779274
3894 8404598 8511210 8749037
3895 8162647 8658609 8690947
3896 8539836 8781951 8747334
3897 8539194 8891553 8774050
3898 8558972 9072668 8783304
3899 8661630 8753403 8730026
3900 8390033 9011667 8760560
3901 8503595 8652668 8813982
3902 8184038 8792741 8883036
3903 8318812 8761654 8910523
3904 8170870 8546071 8839609
3905 8183358 8630750 8778343
3906 8239502 8312531 8824649
3907 7908402 8539922 8811297
3908 8178148 8330065 8792709
3909 7979742 8559128 8827074
3910 8137202 8480324 8812124
3911 8077190 8361155 8800478
3912 8121628 8630235 8785055
3913 8326873 8484380 8783623
3914 8195712 8774243 8747351
3915 8431910 8574992 8763683
3916 8345409 8829918 8740622
3917 8615623 8920362 8671256
3918 8605096 8823650 8768054
3919 8496628 9001941 8726125
3920 8613991 8702838 8799326
3921 8340574 8927423 8726303
3922 8573694 8664756 8708193
3923 8174913 8702013 8851503
3924 8201125 8635034 8790663
3925 8220126 8439884 8756436
3926 8167760 8663209 8767391
3927 8205666 8287443 8768069
3928 7781524 8466088 8880278
3929 8002538 8368361 8961376
3930 7786586 8443367 8944657
3931 8047358 8526144 8892563
3932 8014269 8381745 8932375
3933 7993996 8653567 8841296
3934 8395295 8502049 8783370
3935 8197923 8808854 8776936
3936 8595218 8752897 8759070
3937 8449154 8836263 8691751
3938 8636638 8921563 8661002
3939 8509760 8664269 8731697
3940 8477525 9055118 8773359
3941 8668676 8777437 8797916
3942 8283822 8881332 8808932
3943 8497676 8685138 8717498
3944 8104496 8533923 8756511
3945 8161994 8560231 8788414
3946 8067397 8331041 8845735
3947 7866405 8530734 8896967
3948 8019153 8222872 8881700
3949 7806283 8474362 8879978
3950 8085770 8288116 8811350
3951 7904713 8400712 8840857
3952 8147350 8536858 8777797
3953 8206764 8365385 8764211
3954 8170533 8703343 8711669
3955 8424056 8424358 8684015
3956 8307015 8876409 8699587
3957 8628997 8766372 8718324
3958 8447152 8824780 8723163
3959 8598852 8892941 8697968
3960 8607660 8703485 8660966
3961 8439640 8960734 8674987
3962 8595843 8696937 8810435
3963 8191378 8814711 8817080
3964 8326395 8456585 8716084
3965 8164652 8565398 8736972
3966 8196299 8541226 8728619
3967 8078963 8193795 8785570
3968 7877220 8501572 8822244
3969 8120990 8303358 8908887
3970 7853474 8555500 8875798
3971 8144519 8441115 8819486
3972 8055388 8495716 8823718
3973 8206405 8658094 8756175
3974 8387194 8590164 8790865
3975 8279108 8936314 8814769
3976 8612224 8727593 8758704
3977 8476059 9034627 8806319
3978 8745120 9059607 8861521
3979 8569997 9033616 8900427
3980 8568266 9126263 8883478
3981 8576789 8813049 8864008
3982 8226808 8940521 8918881
3983 8260159 8585784 8999982
3984 7985334 8730030 8998042
3985 8185682 8658796 8974110
3986 7946993 8492918 9002847
3987 7872351 8500062 8990169
3988 7941328 8212591 8926613
3989 7853113 8547769 8899219
3990 8142788 8369163 8885692
3991 7918941 8571342 8894064
3992 8190002 8556113 8896372
3993 8127507 8656920 8905328
3994 8358253 8964437 8857484
3995 8509488 8791115 8916947
3996 8456736 9139367 8864173
3997 8724704 8999657 8907443
3998 8506407 9247033 8951761
3999 8709441 9147260 8970051
4000 8551095 9174014 8995545
4001 8515065 9261506 9083112
4002 8642187 9072164 9087237
4003 8456827 9393998 9108948
4004 8602151 8968932 9096370
4005 8276645 9059218 9024130
4006 8407293 8911243 9026658
4007 8273342 8827497 9049892
4008 8217844 8985905 9087596
4009 8324733 8754455 9086094
4010 8067988 8990899 9016748
4011 8386011 8772319 9032150
4012 8207706 9085873 9046715
4013 8532852 8999062 9049624
4014 8519621 9127309 9027090
4015 8585490 9316255 9007633
4016 8794879 9209937 9024625
4017 8678873 9493553 8960735
4018 8957848 9205075 8880954
4019 8730143 9368929 8870150
4020 8969044 9316642 8894907
4021 8670062 9155597 8962236
4022 8503012 9287879 9058095
4023 8533414 8889833 9018655
4024 8244237 9095825 9004440
4025 8426978 8739417 8988294
4026 8079498 8818192 9021816
4027 8302578 8622049 8842716
4028 8163424 8493325 8806716
4029 8049805 8660588 8847591
4030 8178574 8340902 8839566
4031 8005674 8689248 8859132
4032 8363316 8524863 8830850
4033 8149660 8696880 8830936
4034 8478155 8810835 8802180
4035 8343940 8735953 8833948
4036 8492170 9015089 8797526
4037 8652092 8800299 8785403
4038 8447049 9095958 8788973
4039 8704368 8888567 8791716
4040 8357348 8965500 8835322
4041 8519894 8843986 8859974
4042 8254153 8612192 8855702
4043 8240988 8839550 8821044
4044 8288656 8470243 8798842
4045 8037178 8697580 8791933
4046 8131544 8226505 8772609
4047 7718733 8382068 8924812
4048 7941118 8248093 8851819
4049 7978236 8251877 8721878
4050 8070875 8471121 8751076
4051 8013002 8177428 8795908
4052 7799871 8440458 8823834
4053 8091911 8151196 8722928
4054 8033925 8523459 8728722
4055 8306393 8547197 8708574
4056 8343624 8605322 8701547
4057 8433115 8856024 8697656
4058 8565328 8717185 8776949
4059 8361635 8939455 8731249
4060 8635489 8707691 8701798
4061 8269175 8806531 8785321
4062 8379897 8763565 8829631
4063 8272524 8652170 8853947
4064 8073173 8652701 8778394
4065 8146046 8328972 8856931
4066 7855891 8490484 8773547
4067 8123161 8168169 8711203
4068 7864096 8263052 8640124
4069 8072535 8293414 8715416
4070 7971601 8205759 8711669
4071 7943839 8435086 8759982
4072 8099746 8200844 8695334
4073 8003689 8513507 8706593
4074 8429874 8491050 8700115
4075 8210540 8553340 8665980
4076 8492851 8656136 8627678
4077 8370963 8523862 8716978
4078 8303965 8686855 8635741
4079 8478451 8406461 8610337
4080 8320721 8848607 8662647
4081 8528953 8630535 8643507
4082 8203597 8637473 8765720
4083 8240407 8533896 8723131
4084 8049902 8286690 8736162
4085 7950092 8491370 8763323
4086 7993142 8151352 8820602
4087 7722942 8358732 8774881
4088 8010165 8143952 8737423
4089 7773905 8206939 8737659
4090 7983254 8258968 8696244
4091 7965338 8087393 8693185
4092 8020121 8492558 8648883
4093 8249007 8198809 8663968
4094 8107736 8571224 8614225
4095 8449838 8473562 8599265
4096 8259437 8549205 8605850
4097 8520433 8626454 8505446
4098 8545998 8409813 8476698
4099 8357199 8588728 8433577
4100 8513948 8300325 8452391
4101 8197760 8478970 8438315
4102 8511901 8286084 8322136
4103 8246162 8202324 8348291
4104 8149508 8104741 8278584
4105 8066493 7840469 8357721
4106 8030844 8073401 8214765
4107 8181839 7730021 8174875
4108 7903590 7954869 8256730
4109 8133492 7928064 8371305
4110 7839546 8020558 8590714
4111 8033783 8263724 8616968
4112 8235831 8249518 8570540
4113 8309766 8684630 8588464
4114 8709119 8714239 8614948
4115 8736708 9086327 8559839
4116 9402293 9243334 8407971
4117 9493272 9519740 8418638
4118 9641110 9849963 8545157
4119 9995131 9928022 8520711
4120 9967865 10543895 8718662
4121 10427058 10575586 8839191
4122 10265214 11125391 9094367
4123 10630267 11322493 9251924
4124 10518629 11573758 9420447
4125 10679026 12001635 9601499
4126 10786725 11995276 9819379
4127 10915822 12616550 9848636
4128 11341237 12633023 9966927
4129 11171774 13173356 10273434
4130 11533036 13474030 10428112
4131 11578521 13818341 10689333
4132 11758970 14355479 10875219
4133 12027698 14253778 10851746
