0 8032161 7195437 7926922
1 7857965 7335943 7948463
2 8119157 7514960 7976380
3 8159412 7428324 7990779
4 7938187 7676585 8066704
5 8052814 7426152 8212924
6 7775406 7584122 8176070
7 7995401 7328492 8056291
8 7787366 7265364 7989267
9 7909707 7336368 7911963
10 7946882 7037371 7785475
11 7806145 7266480 7698911
12 7996290 6861483 7666019
13 7701321 7150163 7716094
14 8032830 7026578 7640745
15 7976946 6980235 7603993
16 7966740 7133493 7599721
17 8039398 6954559 7703771
18 7851612 7314323 7744203
19 8063957 7118445 7837242
20 7837166 7450743 8017026
21 8014691 7413454 8032463
22 7903634 7277978 8080750
23 7820010 7569495 8149731
24 7968781 7303898 8164197
25 7684754 7456102 8078735
26 7888920 7266679 8111183
27 7795127 7208184 7905096
28 7833491 7092952 7737119
29 7911141 6772968 7616607
30 7808641 6905760 7413913
31 8132924 6582726 7239217
32 7915273 6749079 7180068
33 8184635 6618100 7098676
34 7939829 6542062 7174609
35 7836086 6646828 7207761
36 8033859 6497774 7245806
37 7740070 6843994 7359858
38 7893313 6674380 7606100
39 7850083 6933598 7479857
40 8249927 7155365 7523098
41 8250421 7339312 7764596
42 8358228 7863754 7842599
43 8622892 7830551 8077334
44 8466466 8250070 8115145
45 8917680 8255409 8071426
46 8903491 8523144 8090512
47 9259040 8881646 8085411
48 9600409 8900048 8045806
49 9424176 9418640 8289729
50 9681614 9271199 8410952
51 9549223 9786773 8611799
52 9988495 10099579 8747402
53 10107515 10493160 8941724
54 10317405 11045297 9218790
55 10479669 11178164 9503354
56 10573100 11826782 9578025
57 11020499 11954408 9719882
58 11060915 12657574 9985334
59 11361240 13026683 10315650
60 11354996 13393274 10652577
61 11326763 13879311 11008731
62 11466457 13895737 11246078
63 11286769 14369669 11389079
64 11236661 13993763 11513736
65 10956258 13940454 11457195
66 11155660 13910209 11291797
67 10743556 13309981 11259537
68 10369010 13168176 11159493
69 10178539 12330566 10955003
70 9529489 11862729 10712151
71 9489883 11198247 10339041
72 8842198 10321398 10006537
73 8455092 9671094 9678124
74 8151463 8917390 9518131
75 7534211 8686595 9422861
76 7694968 7951691 9072412
77 7128893 7858179 9145961
78 7248033 7633393 9011763
79 7104694 7219752 8684983
80 7048765 7271164 8610420
81 7166100 6858931 8534931
82 6907254 7265214 8644102
83 7176471 7025241 8606724
84 6981459 7102112 8571098
85 7299576 7149208 8454783
86 7256847 7078466 8480011
87 7299445 7319582 8389586
88 7451737 7003591 8328378
89 7228627 7267015 8376546
90 7461802 6985602 8209727
91 7416328 7074292 8160389
92 7565711 7107165 8041225
93 7586401 6921936 8111456
94 7468394 7270382 8128439
95 7728344 7033103 8100432
96 7582551 7267998 8008296
97 7790412 7194021 8015046
98 7724475 7256954 8036172
99 7942075 7390145 7919350
100 8040052 7405725 8141552
101 7950352 7741251 8141491
102 8151655 7578822 8253483
103 7811686 7711997 8256429
104 8059694 7643078 8193762
105 8094072 7559378 8104174
106 7855245 7685837 8229894
107 7836047 7239931 8212042
108 7707645 7484035 8117846
109 7967019 7371077 8136549
110 7853467 7406434 8019892
111 7975736 7458902 7964894
112 7897857 7185127 7984185
113 7766318 7284070 7811682
114 8064641 6990373 7720695
115 7675967 7078989 7776279
116 7958638 7008662 7723634
117 7846896 7067996 7783933
118 7843329 7193690 7805520
119 7784721 6981369 7984468
120 7762738 7362285 7861187
121 8057667 7154777 7881523
122 7933256 7463302 7938957
123 8233086 7626593 8002123
124 7969616 7427054 8119070
125 7871437 7646166 8151841
126 8064430 7407777 8173937
127 7859563 7682578 8122224
128 8060282 7338697 8031119
129 7796946 7485174 8153366
130 7825826 7282766 7971861
131 7827114 7009305 7930841
132 7722350 7172005 7736420
133 7978399 6847169 7615141
134 7862108 7131028 7584994
135 8102770 6996686 7587747
136 7947353 6910397 7553140
137 7875531 7054147 7625205
138 7887357 6814349 7739714
139 7726043 7303546 7881723
140 8118444 7285000 7935988
141 7831149 7449215 7989158
142 8082786 7492147 8092949
143 7947339 7475937 8214255
144 7950118 7655710 8070831
145 8085365 7342714 8050261
146 7899388 7686576 8089160
147 8161381 7533651 8104004
148 7949622 7565730 8053799
149 8033103 7566425 8086167
150 8085092 7270984 7910377
151 7982149 7485377 7819428
152 8271123 7205608 7720023
153 8051143 7457650 7739917
154 8159414 7331147 7847373
155 7914746 7252935 7884513
156 8061401 7339158 7681042
157 8134634 7189612 7814079
158 7908512 7448593 7820355
159 8121476 7157913 7876611
160 7867653 7487300 7995064
161 8163569 7569820 8031526
162 7913509 7507485 8214815
163 7877682 7855264 8370360
164 8061623 7595151 8350210
165 7956866 7865550 8219317
166 8273135 7574723 8044559
167 8173147 7847896 8128355
168 8316924 7852484 8082312
169 8282384 7636954 8060133
170 8034054 7703067 8041222
171 8083042 7335081 8052334
172 7814274 7542342 8044371
173 8180373 7358013 7871564
174 8021550 7486547 7967773
175 8181056 7640514 7947603
176 8185621 7352010 7891736
177 8006902 7574088 7875289
178 8215559 7349907 7925481
179 8018972 7618862 7977785
180 8380831 7761475 8060844
181 8108755 7782686 8244882
182 8118418 8104820 8404499
183 8365807 8010237 8475155
184 8137391 8324992 8503110
185 8505741 8147041 8418243
186 8217948 8271123 8453457
187 8423317 8263758 8393714
188 8363638 7970479 8284951
189 8218900 8091422 8228299
190 8318807 7581208 8088649
191 8123551 7812994 7982593
192 8455353 7655588 7968119
193 8251789 7579374 7830374
194 8503753 7731563 7743470
195 8246736 7419143 7882824
196 8081375 7659942 7880743
197 8278521 7462093 7973568
198 8058446 7759537 8043381
199 8354976 7687578 8063227
200 8305682 7886381 8127769
201 8344456 8190607 8231311
202 8501446 8016283 8264945
203 8445677 8405293 8260258
204 8749986 8220537 8267898
205 8502831 8467757 8399208
206 8587348 8427705 8409288
207 8531447 8272780 8353602
208 8437734 8427000 8309007
209 8613269 8089484 8285125
210 8342696 8231757 8234846
211 8612579 8078333 8179194
212 8504499 8122693 8140646
213 8514056 7990398 8015917
214 8545277 7868514 8025349
215 8418809 8065610 7963924
216 8721324 7929867 8038307
217 8467962 8266276 8130006
218 8823275 8256371 8167492
219 8578976 8221931 8221413
220 8582635 8402068 8318307
221 8721984 8332517 8419852
222 8504206 8679807 8479677
223 8692190 8466585 8572099
224 8600185 8811043 8629878
225 8860107 8818259 8561831
226 8883541 8713964 8486668
227 8680233 8821364 8488209
228 8822435 8601947 8597483
229 8593082 8824171 8534707
230 8785051 8548829 8495295
231 8621706 8688883 8543008
232 8756699 8632637 8383989
233 8775091 8328959 8277513
234 8632941 8541128 8224216
235 8826014 8178596 8223565
236 8680519 8493669 8124055
237 8851426 8327540 8137611
238 8737845 8402346 8210997
239 8902174 8582086 8135112
240 8950452 8586335 8341832
241 8815433 8907209 8412759
242 9062498 8772590 8499617
243 8669422 9011537 8678756
244 8858483 8819764 8649393
245 8764019 8809797 8617679
246 8735310 9010329 8676354
247 8985853 8718093 8565019
248 8672193 8973929 8614779
249 8866148 8677857 8587225
250 8542083 8653850 8585810
251 8733278 8634631 8451263
252 8681047 8441906 8376093
253 8580893 8542846 8279745
254 8885493 8351452 8238833
255 8803194 8663426 8198717
256 9094642 8578513 8200271
257 8860381 8597146 8254769
258 8924414 8787050 8365939
259 8855816 8613867 8469442
260 8682932 8979156 8619042
261 8977749 8852151 8692777
262 8620619 8928576 8668701
263 8773829 8777178 8663663
264 8587111 8672581 8648675
265 8800040 8983774 8592512
266 8928334 8697277 8652912
267 8544850 8985651 8756266
268 8709721 8688838 8743658
269 8558697 8781159 8678460
270 8707237 8566497 8338329
271 8691264 8424690 8454173
272 8498687 8572086 8421757
273 8766686 8237594 8296234
274 8607700 8437044 8178337
275 8774488 8275110 8214432
276 8535822 8244180 8262279
277 8466234 8350103 8357479
278 8582829 8165827 8419196
279 8256625 8474096 8481179
280 8641408 8375108 8513930
281 8415649 8608871 8541720
282 8581390 8570562 8644346
283 8450792 8535336 8684218
284 8471889 8789705 8659334
285 8739813 8633791 8722170
286 8352350 8740085 8693759
287 8580685 8446980 8568411
288 8369148 8458227 8584968
289 8458651 8539265 8607715
290 8373104 8186120 8507108
291 8234756 8330704 8433940
292 8453858 8018503 8405093
293 8093985 8171057 8415691
294 8298219 8060963 8457526
295 8219046 7982504 8329035
296 8298198 8050804 8172229
297 8398583 7801896 8221603
298 8203215 8141739 8154126
299 8465364 7879074 8200287
300 8257138 8267161 8380802
301 8265666 8154315 8479661
302 8118778 8038977 8615826
303 8117468 8425522 8629599
304 8339293 8128229 8632798
305 8166154 8460113 8577784
306 8298728 8191535 8609063
307 8199493 8167008 8545355
308 8296713 8158448 8377907
309 8234471 7938219 8409175
310 7971766 8087167 8424727
311 8270546 7793970 8316213
312 8104670 7965044 8201678
313 8213264 7716798 8188114
314 7962833 7754101 8336265
315 8152335 7928200 8205454
316 8184864 7617514 8229783
317 7854843 7909522 8324731
318 8263315 7876080 8345636
319 8011848 7958757 8354251
320 8287135 8031599 8288586
321 8356379 7920630 8245461
322 8258730 8214326 8310549
323 8262856 7994182 8550607
324 7916023 8247282 8657242
325 8227381 8143143 8568125
326 8120213 8175380 8606867
327 8104335 8192006 8573150
328 7990213 7841565 8571365
329 7885319 8061954 8508111
330 8240197 7756829 8316911
331 7939481 7859778 8315350
332 8165791 7754789 8241123
333 7977259 7608492 8254537
334 7942721 7756035 8196845
335 8056837 7444032 8204849
336 7828902 7756720 8222518
337 8225322 7650760 8142169
338 7990379 7761306 8234418
339 8226259 7903070 8207403
340 8223653 7755365 8245318
341 8121397 8067142 8275409
342 8177080 7844370 8489351
343 7873636 8152368 8596115
344 8063820 8045942 8665950
345 7920467 8036402 8660642
346 7901338 8131885 8661001
347 8010640 7843916 8615069
348 7874248 8129476 8532104
349 8109325 7817804 8523899
350 7937582 7868614 8339523
351 8128033 7813162 8322795
352 7924202 7651504 8324170
353 7872552 7792708 8291021
354 8120997 7523440 8152758
355 7951112 7699246 8010837
356 8257593 7580980 8008010
357 8028500 7637997 8123065
358 8029753 7653849 8114520
359 8047599 7576101 8226143
360 8005567 7969582 8325512
361 8276861 7800886 8408410
362 7979517 8102574 8425248
363 8275323 8034776 8409302
364 8187623 8007703 8446706
365 8091846 8246268 8593904
366 8185977 7985566 8618929
367 7946881 8239307 8574064
368 8290617 7964650 8458867
369 8000618 8049047 8498283
370 8154878 8006572 8430852
371 8115587 7814028 8367924
372 8065518 7953130 8275013
373 8192638 7565003 8155880
374 7961307 7768396 8121175
375 8104614 7591622 8163161
376 7877293 7672794 8278108
377 8133667 7901247 8246035
378 8124013 7736476 8353712
379 7969874 7957311 8309507
380 8211397 7795830 8404986
381 7850972 8069757 8546458
382 8147226 8000430 8502944
383 7982087 7914567 8542422
384 7993223 8142335 8516254
385 8152811 7917638 8541880
386 7995815 8211566 8484658
387 8308137 7950254 8491474
388 8001683 8046410 8471999
389 8113073 8050887 8464955
390 8096725 7838446 8391852
391 8081368 8007279 8336260
392 7965544 7661783 8491130
393 7914606 7864672 8230369
394 8318237 7642991 8078220
395 7971001 7648370 8184128
396 7971169 7592755 8127408
397 8132866 7577111 8141522
398 8027461 7972511 8280179
399 8188862 7684478 8337569
400 7933704 7928561 8391138
401 8154565 7897142 8371097
402 8077360 7934038 8396828
403 8077733 8058784 8403263
404 8183988 7863163 8445581
405 7929941 8128954 8564833
406 8143249 7976003 8582077
407 7884319 8060283 8574617
408 8206975 7955379 8338090
409 8219349 7903848 8361591
410 8075073 8009226 8284765
411 8089131 7602504 8357599
412 7841928 7789432 8269324
413 7924742 7442255 8257803
414 7755918 7514250 8235723
415 7995618 7666697 8167447
416 8059611 7526528 8208127
417 8011242 7961754 8308775
418 8175537 7755983 8431368
419 7971089 7986861 8362944
420 8182407 7932717 8372755
421 8111560 7983418 8460242
422 8068852 8257951 8579083
423 8197988 8034474 8579957
424 7977933 8313891 8595051
425 8284382 8178321 8652723
426 8042791 8268270 8666015
427 8154647 8190460 8566251
428 8019097 7851959 8512066
429 7961835 8022982 8420020
430 8144220 7690110 8361655
431 7970520 7908581 8218313
432 8164105 7570317 8134280
433 7852380 7621168 8289747
434 7961701 7722430 8272275
435 8061245 7430725 8128441
436 7986847 7724341 8009641
437 8261056 7430526 7976929
438 8006546 7711483 8099965
439 8292058 7718170 8049382
440 8122115 7775255 8282878
441 8042536 7974394 8373705
442 8106705 7770965 8474246
443 8008953 8228166 8456433
444 8271346 8002005 8522786
445 7913215 8086402 8576828
446 8029720 8040475 8563373
447 7936682 7843610 8573203
448 7908931 8167045 8615717
449 8096851 7824398 8508442
450 7772295 7912625 8441175
451 7938565 7547298 8332432
452 7736065 7590764 8338999
453 7921346 7635867 8179157
454 7995240 7360215 8081023
455 7918277 7638789 8042890
456 8189533 7326980 7982448
457 7814519 7597187 8182570
458 7946607 7454685 8198355
459 7934099 7462303 8049180
460 8131010 7746023 8056251
461 8160898 7660509 8302341
462 7995870 8009749 8377601
463 8234825 7832149 8401565
464 7805612 7943713 8520815
465 8008748 7911216 8509356
466 7885132 7738546 8490454
467 7887527 8015730 8471584
468 8056880 7684982 8447072
469 7720856 7906329 8450191
470 8009948 7541938 8275406
471 7878499 7487393 8123260
472 8110824 7655163 8055736
473 8067547 7553386 8197900
474 7801025 7720712 8210523
475 7937233 7336179 8188389
476 7821919 7640557 8128194
477 8148905 7545708 8126231
478 8037425 7560034 8093826
479 8086267 7732287 8147644
480 7956542 7516567 8370444
481 7936443 7931312 8323276
482 8169196 7747251 8392114
483 7988429 8017875 8407320
484 8193812 7951888 8428592
485 7987496 7868318 8458922
486 8016312 8069549 8449447
487 8121879 7815923 8434937
488 7877092 7971245 8389259
489 8053594 7706998 8378767
490 7805136 7745191 8350412
491 8011397 7655262 8207883
492 7989164 7489393 8172365
493 7890464 7654626 8096687
494 8064463 7411948 8127360
495 7855792 7566011 8040359
496 8087204 7425675 8107892
497 7829017 7484621 8177170
498 7940010 7599355 8197190
499 7997042 7529795 8280199
500 7840282 7822403 8363663
501 8091091 7628578 8382426
502 7883043 8010341 8485684
503 8140784 8001347 8546970
504 7892039 7971058 8654319
505 7925139 8150332 8702347
506 7993721 7897553 8649395
507 7814226 8111690 8534618
508 8005523 7661410 8471272
509 7755579 7778835 8411030
510 8029040 7753599 8325103
511 7836097 7553851 8289935
512 7871958 7712966 8223017
513 7889273 7233106 8130228
514 7702502 7560021 8113301
515 7961126 7317319 8056693
516 7814128 7410116 8063032
517 7992462 7518304 8094197
518 7946005 7298623 8089846
519 7915188 7686257 8114353
520 8224788 7597776 8195604
521 7905865 7896939 8299817
522 8068728 7719370 8329859
523 7915197 7868295 8452670
524 7876827 7869622 8475871
525 7853103 7728415 8589463
526 7798938 7962799 8466275
527 8088580 7624419 8361792
528 7848897 7770152 8298622
529 7907024 7614630 8358694
530 7675080 7516928 8440982
531 7836686 7761845 8306603
532 8087393 7547485 8197034
533 7870086 7658501 8056756
534 8106168 7345559 8047115
535 7813428 7382152 7963782
536 7871631 7249913 7955473
537 7761892 7250223 8145803
538 7923486 7693425 8130050
539 8030025 7450340 8249392
540 7835996 7786757 8265312
541 7991280 7569097 8336661
542 7758048 7738019 8422321
543 7963909 7892650 8411912
544 7993542 7714872 8433721
545 7726578 7937114 8568322
546 7803678 7604025 8554811
547 7689054 7860496 8453658
548 8053697 7754242 8378996
549 7914367 7633864 8272951
550 7964023 7713576 8199661
551 7883893 7311312 8187695
552 7599858 7466752 8162239
553 7926964 7149577 8002832
554 7919770 7399082 7889184
555 8101525 7368977 7864368
556 7863005 7208533 8004493
557 7841066 7548836 8055585
558 7965978 7394437 8259500
559 7809046 7749440 8237546
560 8035729 7488634 8180127
561 7807632 7638811 8311879
562 7949390 7757122 8372324
563 7966831 7770265 8542138
564 7782533 8078952 8615212
565 7917482 7779050 8672380
566 7701943 8023501 8622025
567 8078378 7861988 8500864
568 7981818 7851972 8426574
569 7888811 7953381 8427847
570 8021058 7635205 8356143
571 7831110 7791088 8261250
572 8077502 7586253 8259110
573 7864966 7700251 8184493
574 8126821 7641997 8094536
575 8093701 7487441 8066427
576 7999302 7692916 8024913
577 7938228 7394722 8271972
578 7800688 7808123 8291192
579 8138396 7736989 8381710
580 7858383 7831300 8440110
581 8005722 7991217 8492512
582 7989113 7855895 8525617
583 7914593 8190369 8579532
584 7895322 7885173 8781254
585 7753870 8103674 8664047
586 8051291 7920008 8576675
587 7883145 7977159 8582278
588 7929106 8065389 8582834
589 7931618 7730025 8502349
590 7936642 8021679 8365474
591 8059033 7568221 8350154
592 7746873 7731042 8298206
593 7992857 7550988 8185181
594 7836961 7534563 8249504
595 7963850 7701939 8132594
596 7966963 7486977 8268007
597 7929506 7871122 8237589
598 8215476 7627751 8251174
599 8040878 7932826 8375359
600 8301205 8154824 8450799
601 8172292 8159400 8628136
602 8117944 8424200 8674897
603 8329295 8160506 8691472
604 7982137 8401614 8737206
605 8219669 8254705 8737875
606 8075084 8343854 8724946
607 8099635 8312436 8734111
608 8193065 8228996 8738234
609 8190571 8475949 8577915
610 8334213 8053723 8481270
611 8033374 8201664 8415913
612 8319530 7997744 8337459
613 8168732 7879679 8251431
614 8169770 7954796 8244352
615 8301786 7723458 8221282
616 8138236 8042039 8180452
617 8399131 7805587 8195719
618 8183226 8012356 8224750
619 8329643 7897904 8199335
620 8053142 7677923 8236385
621 8048880 7977494 8312445
622 8251494 7796453 8369847
623 8114461 8280441 8461281
624 8445413 8138727 8497843
625 7979137 8076217 8583321
626 8019642 8042731 8543976
627 7990256 7728683 8478167
628 7811181 7875881 8414754
629 8087030 7633561 8359072
630 7974877 7925795 8294799
631 8079081 7685566 8237538
632 7928443 7680719 8273765
633 7994629 7584565 8070981
634 7940498 7249446 8059244
635 7648849 7500030 8141288
636 7945458 7307172 8147406
637 7927918 7630361 8041420
638 8056144 7433857 8076413
639 7812490 7425586 8203009
640 7910816 7620033 8115047
641 8198394 7410343 8031452
642 7823108 7768294 8242746
643 8074259 7659195 8353932
644 7713647 7720928 8456617
645 7900113 7776042 8506964
646 7780408 7655024 8594211
647 7652525 7922241 8587825
648 7964443 7574107 8419853
649 7667308 7708054 8318932
650 7944147 7474266 8312843
651 7777034 7453467 8146471
652 7923373 7433270 7986368
653 7919321 7149941 7948136
654 7725828 7381539 7913323
655 7966174 7135423 7941289
656 7691196 7296238 7927878
657 8041384 7306827 7916053
658 7793551 7253696 7967116
659 7921022 7539530 7992725
660 7981898 7370014 8135900
661 7713380 7655062 8242420
662 8005758 7469503 8265940
663 7749276 7749037 8344346
664 8046514 7712637 8296135
665 7983918 7703771 8339293
666 7890010 7854627 8380339
667 8060172 7569215 8298939
668 7833969 7793169 8279897
669 7986508 7395682 8171027
670 7724813 7482901 8212049
671 7876021 7525384 8185041
672 7955083 7306057 8032880
673 7882981 7539283 7976921
674 8081720 7303738 8010350
675 7787418 7455422 7972834
676 8033738 7260629 7917929
677 7823293 7270816 7948635
678 7807068 7325621 8000746
679 7983661 7310142 8076212
680 7811685 7632506 8129331
681 8131692 7531911 8193755
682 7813234 7673053 8247992
683 7881709 7534496 8322825
684 7819930 7567567 8399107
685 7844601 7868386 8417739
686 7780329 7427093 8431092
687 7669418 7671662 8273344
688 7959412 7388807 8193094
689 7650343 7504427 8318955
690 7764396 7469423 8226208
691 7748662 7178074 8105744
692 7820168 7314950 7850921
693 8011642 6841997 7659178
694 7675614 6941427 7570493
695 7950771 6646046 7403097
696 7767941 6711931 7406950
697 7913042 6944924 7529493
698 8020939 6837240 7537640
699 7908112 7093885 7519007
700 8066642 6840452 7582017
701 7729134 7175840 7798094
702 7920860 7237819 7942226
703 7756312 7319662 8130510
704 7760463 7603378 8259415
705 8022320 7537919 8337108
706 8005269 7973447 8318123
707 8381111 7919135 8335507
708 8243044 8123927 8299710
709 8483922 8279063 8355788
710 8577018 8342486 8401075
711 8782086 8667912 8275158
712 9097569 8592187 8232907
713 9237793 9090318 8114741
714 9519777 9125851 8340395
715 9510167 9461374 8401890
716 9940148 9823880 8371614
717 10127137 10018041 8593717
718 10116158 10665177 8858732
719 10503491 10931579 9250699
720 10240585 11525680 9623460
721 10687992 11919613 9904893
722 10737108 12312935 10149070
723 11008074 12895354 10313467
724 11358715 12919062 10309801
725 11337840 13562029 10538633
726 11298412 13544589 11030930
727 11123661 13875021 11102778
728 11462381 13880388 11062810
729 11017784 13674168 11301350
730 10870295 13591511 11095241
731 10830539 12799638 10822899
732 10364457 12713351 10656456
733 10279292 11834608 10318841
734 9894298 11382882 9930558
735 9581899 10716938 9711036
736 9126058 9917276 9542361
737 8704053 9744188 9400753
738 8490220 8926228 9184752
739 7848989 8651076 9134121
740 7684492 8053934 9090879
741 7350900 8090960 9197489
742 7289942 7963956 9186361
743 7145275 7604002 9168563
744 6891571 7596596 9001037
745 6944420 7028988 8903894
746 6601566 7104271 8770680
747 7103937 7066539 8611117
748 6905065 6967757 8583146
749 7147351 7203339 8498855
750 7416848 7155926 8483851
751 7303175 7307054 8306304
752 7442677 6964105 8317357
753 7235701 7085894 8262108
754 7365384 7025622 8199832
755 7237414 6790254 8244888
756 7159301 6986818 8181431
757 7369716 6774035 8143081
758 7207490 7142388 8212416
759 7563532 7033828 8213480
760 7463613 7291626 8259733
761 7763938 7430382 8173765
762 7776098 7455736 8355248
763 7846613 7885062 8360700
764 7989011 7601724 8428100
765 7743783 7937050 8511335
766 7888402 7688650 8555437
767 7734285 7774055 8516093
768 7960246 7966865 8433372
769 7898795 7698786 8499023
770 7653407 7749357 8410160
771 7847588 7377997 8354812
772 7714359 7545224 8167039
773 7834606 7316324 8132229
774 7745899 7227691 8070779
775 7788502 7406776 8001951
776 7840850 7063215 8001562
777 7690870 7386883 8004887
778 7949124 7223465 7970104
779 7779416 7445458 8038176
780 7938263 7389430 8064669
781 7863989 7387715 8140232
782 7859118 7669192 8144651
783 8066597 7484432 8236401
784 7660233 7692953 8300485
785 7975569 7644943 8368825
786 7831311 7885480 8457920
787 7953253 7767193 8308503
788 7729547 7433636 8408171
789 7576448 7610718 8371844
790 7882061 7396580 8337132
791 7660489 7552760 8203473
792 7900765 7315262 8150694
793 7693264 7326377 8169854
794 7854570 7414620 8021903
795 7908604 7174686 8021570
796 7823778 7454888 7961538
797 8010912 7163234 7986606
798 7759078 7356058 7905079
799 8042806 7346289 7944127
800 7900594 7408154 8046056
801 7883434 7663750 8093145
802 8014115 7450639 8228742
803 7729271 7737327 8351219
804 7985231 7575473 8339573
805 7805412 7760406 8381691
806 7986769 7762682 8366541
807 7827542 7616161 8453458
808 7727603 7807171 8461743
809 7852888 7485414 8460527
810 7707027 7736290 8280778
811 8044173 7370875 8080578
812 7883949 7397972 8007876
813 8002552 7397624 7947158
814 7966007 7207798 7983231
815 7884083 7503650 7967964
816 8128416 7266888 7977630
817 7740908 7447587 8073051
818 8041955 7412657 8052142
819 7977137 7505793 8166654
820 7975558 7776523 8220677
821 8162705 7680704 8312034
822 8011415 8024182 8364129
823 8210400 7796133 8369823
824 7900543 8029448 8565454
825 7884908 7914152 8606305
826 7790786 7705915 8513744
827 7889732 7993162 8442167
828 8044639 7712220 8476199
829 7803223 7906211 8408394
830 8265794 7789846 8252016
831 8033017 7692632 8127004
832 8131963 7610212 8020572
833 8062583 7398786 8046136
834 8095274 7686104 7943171
835 8493649 7418556 7750597
836 8028549 7593408 7876475
837 8164659 7365658 7933002
838 7886888 7433565 8078656
839 7954757 7683335 8213799
840 7966484 7500768 8226049
841 7911946 7918521 8255985
842 8213958 7733893 8333824
843 8053289 8115278 8387448
844 8260015 8032648 8427441
845 7971018 8036066 8643971
846 8041280 8237541 8583315
847 8048233 7928632 8612694
848 7873603 8264620 8659422
849 8173389 7975265 8558288
850 8050529 8068616 8458027
851 8359332 8021549 8235079
852 8245156 7852569 8263156
853 8035914 7866918 8193707
854 8233112 7532418 8127739
855 8033513 7752601 7984091
856 8436632 7620389 7930144
857 8186958 7712902 8005426
858 8318043 7889484 8087339
859 8396452 7866505 8207695
860 8139992 8133611 8284338
861 8460667 7984799 8302449
862 8149379 8109145 8367958
863 8310778 8178203 8481615
864 8235394 8256330 8618601
865 8293965 8492177 8610610
866 8449085 8236550 8577470
867 8201506 8419792 8521735
868 8413908 8188960 8572970
869 8265036 8309944 8432251
870 8328013 8241031 8478254
871 8276068 7995453 8425089
872 8242065 8300558 8419400
873 8584353 7963989 8180629
874 8430722 8161582 8044938
875 8709588 8004892 8049728
876 8439219 8066101 8157197
877 8405662 8154004 8245174
878 8456038 7988687 8271655
879 8444558 8373528 8232776
880 8707883 8127755 8276383
881 8518905 8532983 8328310
882 8659724 8357005 8409519
883 8549973 8478389 8505739
884 8363496 8573159 8641766
885 8514705 8508978 8737602
886 8258480 8826469 8825991
887 8643995 8651323 8815136
888 8549174 8870233 8664094
889 8833442 8727733 8519692
890 8719235 8547781 8503242
891 8652299 8497489 8276017
892 8782585 8188697 8196719
893 8537406 8325061 8123229
894 8890119 8203474 8091751
895 8470115 8205899 8259723
896 8616897 8386561 8263721
897 8760297 8404010 8369879
898 8695888 8748595 8356028
899 8850042 8469240 8485548
900 8572867 8772387 8510893
901 8755144 8676117 8612132
902 8561499 8773129 8674087
903 8706428 8837636 8586199
904 8766708 8700621 8714218
905 8471008 8987095 8768375
906 8866550 8830949 8735297
907 8585986 8948335 8752281
908 8775928 8862638 8713604
909 8698167 8775706 8666813
910 8703333 8955958 8661188
911 8627439 8463483 8612375
912 8336257 8663030 8638841
913 8697318 8446352 8532378
914 8541149 8502601 8363703
915 8703820 8562880 8364694
916 8534033 8362333 8544209
917 8464245 8631079 8486155
918 8964359 8642325 8455917
919 8726579 8969951 8614328
920 8906475 8799935 8574883
921 8681131 8811482 8620444
922 8669844 8826591 8652702
923 8699946 8743382 8757931
924 8645814 9057077 8695071
925 8819548 8766820 8735159
926 8313810 8898728 8948403
927 8644886 8884873 8869279
928 8483446 8731612 8838802
929 8449484 8834272 8748090
930 8731086 8606867 8651425
931 8596571 8800423 8505585
932 8933437 8623498 8474728
933 8603821 8611902 8466520
934 8612734 8489656 8428034
935 8530084 8270420 8431903
936 8528400 8485494 8308612
937 8643758 8240056 8410396
938 8414665 8595382 8481776
939 8727623 8578888 8557659
940 8345228 8592448 8699282
941 8468150 8718643 8706286
942 8614325 8558696 8701496
943 8431391 8830309 8744257
944 8560516 8635052 8864290
945 8313438 8919250 8856632
946 8571899 8703142 8835925
947 8347403 8701113 8870032
948 8388776 8811916 8848725
949 8325688 8445757 8844424
950 8241334 8795116 8873309
951 8397154 8308762 8656877
952 8171300 8403388 8622044
953 8424079 8326707 8552715
954 8317003 8136379 8488004
955 8374116 8372767 8341750
956 8500449 8034854 8392754
957 8062316 8282396 8497411
958 8381613 8017859 8411518
959 8210346 8181083 8375658
960 8395876 8177366 8365609
961 8282624 8152093 8566093
962 8133828 8424151 8587825
963 8372973 8206791 8646556
964 7985114 8426364 8754426
965 8197843 8204896 8737535
966 8046572 8378457 8770672
967 8203031 8526786 8757717
968 8159018 8169378 8730374
969 7988462 8353226 8662202
970 8300748 8090215 8555688
971 8082033 8151935 8437620
972 8190669 7944179 8419791
973 8113900 7867669 8331616
974 8253920 7971771 8152231
975 8135297 7695635 8343790
976 7884098 7923833 8343374
977 8133525 7680447 8410833
978 7987028 7937336 8310624
979 8043644 7815341 8390371
980 8176786 7864020 8318535
981 8146168 8253065 8518000
982 8254001 7994927 8561877
983 7901574 8266946 8656695
984 8247390 8173627 8655372
985 7983793 8172481 8601813
986 8070067 8216399 8688035
987 7957345 8040642 8742600
988 8017700 8326313 8609111
989 8162361 7958370 8546713
990 7897533 8128119 8531877
991 8185339 7861906 8349599
992 8000515 7897279 8417530
993 8018364 7763106 8230664
994 8053304 7568912 8198439
995 7814839 7780576 8313274
996 7997431 7516005 8320216
997 7910498 7776574 8232987
998 8007113 7691673 8403682
999 7839125 7703088 8407312
1000 7979497 7900325 8338758
1001 8051193 7736151 8451959
1002 7853063 8095031 8535701
1003 8066533 7840164 8565224
1004 7733854 8072935 8658714
1005 8024940 8096604 8668842
1006 7921546 7967460 8698127
1007 7863284 8195200 8674227
1008 8122723 7983208 8678826
1009 7778537 8156011 8688194
1010 8020185 7878505 8552729
1011 7945160 7833777 8332686
1012 7995831 7850056 8423159
1013 7951779 7690264 8376541
1014 7965681 7821624 8151835
1015 8128711 7522937 8210218
1016 7852885 7834324 8264721
1017 8091343 7593812 8216376
1018 7785595 7543648 8271597
1019 8063961 7840624 8254038
1020 8212800 7767716 8358597
1021 8034615 8180100 8458471
1022 8220204 7925125 8547787
1023 7946647 8225427 8615881
1024 8172636 8192439 8619232
1025 7989051 8076712 8650693
1026 8040691 8247938 8648733
1027 8095763 8066565 8715683
1028 7940442 8272272 8633786
1029 8201341 8000662 8576757
1030 8028062 8174260 8473192
1031 8176159 7987631 8408189
1032 8109294 7877158 8456174
1033 8042251 8040541 8310574
1034 8242348 7698138 8277784
1035 8008912 7870576 8140890
1036 8214952 7608827 8135699
1037 8029048 7729572 8152167
1038 8076926 7831675 8324484
1039 8064365 7724928 8369792
1040 7972681 7985718 8374171
1041 8160179 7806024 8523391
1042 7917691 8200956 8626181
1043 8088854 8136417 8715127
1044 7933548 8182880 8750406
1045 7941353 8219984 8746822
1046 8035579 8018033 8730234
1047 7869194 8240228 8664701
1048 8166971 7894462 8597859
1049 7785084 7961336 8560838
1050 8070102 7871538 8500408
1051 7916348 7723566 8388004
1052 7949536 7912123 8329430
1053 8015876 7556641 8297885
1054 7816921 7780425 8222171
1055 8052282 7528214 8201534
1056 7985065 7824187 8238563
1057 8235205 7954647 8259253
1058 8045263 7754125 8376315
1059 7946272 8039334 8414677
1060 8141427 7729379 8413873
1061 7954835 8135878 8489123
1062 8211136 8016860 8507498
1063 8040420 8117919 8561211
1064 8106497 8137462 8589744
1065 7905931 7964481 8786300
1066 7876726 8309307 8697386
1067 8126602 8014402 8725435
1068 7848423 8235235 8665176
1069 8099687 8024889 8567612
1070 7995758 7912936 8473524
1071 7923584 7987229 8456607
1072 7934093 7704517 8513118
1073 7913540 7988389 8386396
1074 8206154 7714505 8249219
1075 7964007 7774580 8185254
1076 8151704 7715322 8206485
1077 7949999 7587118 8279770
1078 7927792 7865320 8304291
1079 8236831 7745248 8249289
1080 7918474 8053767 8459184
1081 8163930 7941633 8614642
1082 7881347 8075183 8595843
1083 8287348 8192862 8524263
1084 8076353 8095637 8746710
1085 7906401 8289318 8785761
1086 7973725 8066583 8931455
1087 7764501 8347858 8896881
1088 8113248 8033022 8715294
1089 7866543 8059730 8660593
1090 7963047 8074119 8640850
1091 7983594 7871853 8501760
1092 8002071 8078551 8409318
1093 8286560 7704022 8218216
1094 7869080 7863452 8294043
1095 8016664 7667755 8329078
1096 7879117 7698528 8345534
1097 7987758 7833982 8343591
1098 8012667 7676603 8414974
1099 7880112 8140034 8529545
1100 8150588 7846926 8561940
1101 7792799 8061272 8632757
1102 8044219 8061915 8634681
1103 8054616 8181775 8716294
1104 8260807 8464213 8589254
1105 8317399 8179094 8622644
1106 8011162 8386688 8691422
1107 8032615 7960771 8715713
1108 7781601 8112538 8763038
1109 7961669 8067445 8723618
1110 7973701 7973034 8626772
1111 8019258 8039967 8349480
1112 8125611 7757600 8410332
1113 7878502 7972801 8393543
1114 8191556 7721519 8336815
1115 7877818 7748627 8347428
1116 8044106 7828123 8275296
1117 8131484 7683340 8235086
1118 8015304 7986071 8268402
1119 8228658 7782974 8376236
1120 7876176 7891600 8352198
1121 8055267 7763783 8458282
1122 7782567 7853829 8552339
1123 7879525 8121692 8665727
1124 8107544 8019412 8645739
1125 7976115 8301323 8619331
1126 8119534 7977246 8648858
1127 7762323 8186720 8736651
1128 8030880 8021952 8607439
1129 7824746 7840480 8618528
1130 7848124 7941653 8508220
1131 8081796 7618443 8340188
1132 7916752 7947693 8281401
1133 8203629 7652855 8265662
1134 7919641 7715398 8210610
1135 8254601 7864149 8216747
1136 8071066 7684417 8262708
1137 7932378 7827039 8242510
1138 8146668 7574651 8255357
1139 7945337 7958260 8261667
1140 8263318 7783723 8280200
1141 8050878 7993190 8444135
1142 8176269 8111760 8478937
1143 8093145 8035288 8630016
1144 7927116 8301365 8706778
1145 8048957 7989689 8767825
1146 7855889 8210076 8707265
1147 8050040 8088271 8716526
1148 7909687 7981563 8618858
1149 7946468 8055904 8574644
1150 8055032 7832823 8508655
1151 7932874 8062647 8404751
1152 8168002 7687328 8336012
1153 7918967 7809493 8259054
1154 8155612 7717482 8227995
1155 8073603 7666001 8198579
1156 8023442 7819831 8167748
1157 8129531 7518381 8216145
1158 7901391 7861137 8233618
1159 8184890 7688449 8318675
1160 7798480 7799917 8447157
1161 8065484 7889704 8422931
1162 8066340 7869795 8458137
1163 8027333 8175710 8494775
1164 8124105 7980518 8688200
1165 7801362 8180777 8708255
1166 8104268 7984208 8653702
1167 7885492 8105697 8677407
1168 8142897 8140959 8485024
1169 8017957 7868949 8571007
1170 7897832 8126044 8553937
1171 8138747 7805897 8472621
1172 7829320 8021573 8519789
1173 7998463 7822014 8533239
1174 7883748 7812363 8404902
1175 8096555 7824389 8233703
1176 8122766 7726922 8308011
1177 7880081 7951551 8350093
1178 8306727 7877601 8342578
1179 7967116 8158719 8484408
1180 8171938 7983917 8510228
1181 8059297 8232847 8767237
1182 8028545 8356202 8713634
1183 8080550 8043319 8747846
1184 7974776 8458249 8809183
1185 8160851 8116565 8790857
1186 7945608 8401392 8859528
1187 8217633 8402828 8809639
1188 8125374 8228685 8765685
1189 7871744 8179547 8715062
1190 7768418 7544018 8607073
1191 7605218 7848866 8569247
1192 8101126 7773397 8441442
1193 7876974 7928789 8465114
1194 7982068 7892878 8380716
1195 8050643 7815279 8398069
1196 7971010 8005422 8363883
1197 8226994 7716679 8298549
1198 7868789 8042994 8431411
1199 8104990 7893446 8578144
1200 7851441 8064049 8642524
1201 8002422 8222203 8727839
1202 7976783 8218852 8929277
1203 8132193 8659508 8835631
1204 8219585 8407349 8997881
1205 7897714 8629957 9082122
1206 8234191 8594698 9076478
1207 8002995 8554295 9061362
1208 8201518 8533624 8845550
1209 8246430 8400312 8932605
1210 7972183 8610819 8929789
1211 8350065 8293230 8772712
1212 8161724 8467054 8693319
1213 8379064 8334240 8593302
1214 8127605 8196975 8601021
1215 8214169 8347629 8524503
1216 8354149 8076304 8485823
1217 8214588 8390825 8433843
1218 8404289 8143448 8514100
1219 8096100 8378696 8672429
1220 8175339 8377148 8821356
1221 8081427 8374209 8947876
1222 8172379 8555702 8705781
1223 8375789 8262188 8697557
1224 8100901 8536954 8800418
1225 8236530 8268304 8764999
1226 7973647 8268501 8815198
1227 8134678 8388768 8745982
1228 8235161 8135509 8652175
1229 8059909 8322116 8592851
1230 8296532 8024241 8574422
1231 7931304 8119978 8518843
1232 8237130 7930915 8403715
1233 8075037 7887041 8337585
1234 8139654 7968934 8207091
1235 8213994 7744717 8270438
1236 7965955 7982700 8268354
1237 8166878 7750272 8347856
1238 7895142 7888431 8357254
1239 8137583 7878270 8332428
1240 8001973 7752047 8379029
1241 7959928 8081651 8560862
1242 8114169 7833070 8505283
1243 7896598 8147935 8545143
1244 8099692 7917529 8603379
1245 7804519 8080564 8640598
1246 7931651 7991501 8605031
1247 7812550 7754933 8607945
1248 7808079 7900460 8460203
1249 7983261 7593856 8369161
1250 7712576 7850103 8440528
1251 7894046 7437549 8305747
1252 7764206 7608197 8254738
1253 7980997 7678921 8206544
1254 7897348 7340613 8117103
1255 7769377 7635735 8124376
1256 7913599 7311311 8186913
1257 7741946 7522771 8127523
1258 8154020 7595080 8146367
1259 7908608 7617191 8234401
1260 7920816 7793051 8287624
1261 8041219 7640463 8386879
1262 7824432 7905397 8373319
1263 7947731 7628847 8477114
1264 7676595 7894169 8583030
1265 7848805 7808425 8596116
1266 7826987 7839097 8622066
1267 7743455 7968411 8646654
1268 7783581 7582038 8651725
1269 7732402 7975123 8492242
1270 8116362 7691160 8361999
1271 7768725 7706264 8376590
1272 7846513 7616272 8335439
1273 7716440 7315655 8264734
1274 7690539 7561626 8174280
1275 7896998 7289458 8156653
1276 7757380 7469606 8015554
1277 8018475 7328198 7977957
1278 7940067 7532235 8075978
1279 7923993 7549077 8131031
1280 7865208 7326246 8201200
1281 7750139 7738742 8294929
1282 8127535 7619577 8367804
1283 7868715 7963200 8380949
1284 8158235 7861131 8368346
1285 7887639 7773174 8440328
1286 7922495 7966437 8446737
1287 8000016 7729213 8497729
1288 7852175 7963423 8375588
1289 8037122 7659567 8378554
1290 7865820 7804650 8354086
1291 8017943 7691685 8276634
1292 7870956 7514626 8285512
1293 7851111 7552356 8060053
1294 8113954 7238686 7933949
1295 7845806 7435654 7914251
1296 7939744 7107447 7921521
1297 7811845 7307016 7883992
1298 8062663 7300429 7796016
1299 8141602 7150201 7657028
1300 7936268 7347775 7752286
1301 8053079 7137691 7860826
1302 7798088 7336162 7847167
1303 7901502 7156654 7998693
1304 7977410 7291731 7765511
1305 8096221 7460945 7869178
1306 8058357 7426204 8102438
1307 7973709 7670086 8028629
1308 8228234 7398081 7946580
1309 7931928 7681687 8085948
1310 8273761 7658723 8172524
1311 8033725 7670190 8208177
1312 8216620 7880106 8078598
1313 8438974 7769138 8140352
1314 8310136 8128618 8120994
1315 8731816 8187806 8278295
1316 8573678 8505859 8287590
1317 8946917 8725655 8345306
1318 9109236 8996165 8477174
1319 9228881 9457250 8602395
1320 9494812 9512887 8796597
1321 9550974 10257760 9027720
1322 10051051 10493708 9200573
1323 9980270 11091749 9523376
1324 10222755 11521188 9896155
1325 10264999 11732119 10126976
1326 10428682 12306227 10220888
1327 10780880 12357623 10371984
1328 10709423 12991199 10549089
1329 11176052 13090735 10682610
1330 10973544 13447181 11013656
1331 11219393 13709372 10955830
1332 11280970 13549339 11005635
1333 11160979 13873421 11015133
1334 11247219 13533778 11131377
1335 10849802 13584200 11044266
1336 10811365 13149536 11036323
1337 10345734 12740278 10916380
1338 10152444 12405863 10673668
1339 9871879 11662589 10582403
1340 9335801 11309616 10251671
1341 9217578 10523159 10097067
1342 8621109 10262698 9973309
1343 8505073 9703314 9876884
1344 7910407 9141475 9829359
1345 7464208 8810854 9722190
1346 7376881 8144644 9599850
1347 6990977 8155280 9497471
1348 7134819 7645185 9319240
1349 6832131 7396999 8954007
1350 7025459 7062366 8638575
1351 6976489 6785720 8439726
1352 6961611 7011264 8403010
1353 7168047 6712434 8347870
1354 6975393 6968016 8316424
1355 7317703 6867530 8314172
1356 7150034 6967059 8289387
1357 7262842 6997813 8229916
1358 7238136 6788272 8259915
1359 7146967 7196797 8375941
1360 7390187 6995547 8401490
1361 7131378 7359126 8584124
1362 7428670 7326307 8614804
1363 7334399 7440026 8599185
1364 7535649 7642679 8576610
1365 7677148 7555985 8617584
1366 7548064 7859757 8606388
1367 7811954 7652751 8625843
1368 7604623 7795004 8570651
1369 7795200 7699288 8511240
1370 7711730 7592597 8464547
1371 7760613 7694999 8332961
1372 7957565 7440508 8322814
1373 7666154 7594547 8222533
1374 7907975 7367924 8201979
1375 7664231 7404428 8158035
1376 7888357 7465787 8095294
1377 7898888 7198735 7990286
1378 7687220 7445615 8061290
1379 7843147 7134865 8149125
1380 7534013 7469123 8205460
1381 7831888 7446128 8276747
1382 7718267 7641226 8401278
1383 7872859 7796814 8445877
1384 7779998 7564686 8531799
1385 7582833 7857580 8553071
1386 7903917 7725049 8634985
1387 7676045 7969532 8647067
1388 7981286 7830950 8559437
1389 7833587 7732013 8376830
1390 7838727 7705633 8331351
1391 7907159 7398895 8266435
1392 7757065 7654740 8173692
1393 8076887 7400034 8078435
1394 7776693 7414162 7999862
1395 7983458 7449910 8062175
1396 7779787 7351182 8170972
1397 7838309 7525411 8079037
1398 7991001 7418377 8154536
1399 7753491 7638060 8145888
1400 8034359 7384969 8094120
1401 7815462 7633484 8241232
1402 7890161 7573240 8259518
1403 7884000 7520135 8274749
1404 7869194 7844339 8295127
1405 8012036 7628805 8378880
1406 7876094 7888208 8342025
1407 8181629 7760691 8316771
1408 7880728 7793287 8409004
1409 7971198 7801452 8375618
1410 7846142 7403546 8292432
1411 7895442 7643609 8067355
1412 8141280 7305307 7985376
1413 7975373 7505249 7880290
1414 8045228 7217811 7892176
1415 7808362 7155064 7905244
1416 7917360 7372295 7910283
1417 7972047 7129017 7936397
1418 7816288 7483229 7961449
1419 7960609 7317612 8136763
1420 7677158 7537418 8185516
1421 7963434 7585429 8279398
1422 7884923 7580019 8310102
1423 7986047 7883550 8265623
1424 8034958 7761712 8455052
1425 7796620 8030258 8530723
1426 7945874 7877726 8695735
1427 7636266 7901437 8663112
1428 7943238 7853121 8503802
1429 7876208 7732732 8528605
1430 7831846 7942838 8427339
1431 7976602 7522051 8352631
1432 7747807 7666147 8189964
1433 8068708 7382806 8054436
1434 7756158 7392318 8100074
1435 7934861 7512078 8102832
1436 7916577 7289685 8082441
1437 7839724 7523423 7979252
1438 8054238 7258710 8051640
1439 7844327 7585402 8105048
1440 8110035 7592398 8165627
1441 7977233 7735341 8277458
1442 8063410 7929036 8316282
1443 8186970 7777684 8347250
1444 7951506 8054832 8391766
1445 8204901 7829738 8428902
1446 7971804 8039744 8443053
1447 8139928 7959535 8444703
1448 8057090 7832388 8378240
1449 8020322 8080723 8422838
1450 8152472 7748178 8407424
1451 7873984 7834068 8313116
1452 8122671 7690183 8329205
1453 7878670 7761659 8337283
1454 7989204 7750438 8286008
1455 8032757 7556185 8224684
1456 7953604 7740532 8121784
1457 8164637 7546038 8185242
1458 7931882 7869577 8230060
1459 8275028 7745104 8202237
1460 8126806 7883044 8240973
1461 8174720 8090496 8356333
1462 8270483 8007805 8502170
1463 8148091 8318161 8488200
1464 8347220 8123530 8591940
1465 8163792 8381560 8562281
1466 8351559 8383194 8653776
1467 8245841 8257005 8633741
1468 8215957 8407444 8574006
1469 8254944 7997148 8567043
1470 8118548 8227283 8411979
1471 8351005 7910012 8389751
1472 8101141 8026506 8371793
1473 8341618 8057359 8284128
1474 8278791 7905008 8305415
1475 8188331 8091165 8233592
1476 8405608 7825891 8242095
1477 8081386 8082873 8252402
1478 8279406 7910414 8373550
1479 8128489 8004781 8367527
1480 8269724 8182375 8397107
1481 8375034 8127845 8431413
1482 8253626 8388839 8436752
1483 8543765 8285914 8543935
1484 8262414 8577763 8658742
1485 8476937 8511784 8678639
1486 8326126 8512655 8714755
1487 8195209 8601579 8809564
1488 8286764 8389610 8814920
1489 8190343 8677894 8788431
1490 8412546 8446846 8808716
1491 8188052 8532949 8695474
1492 8458779 8456136 8551989
1493 8422423 8322638 8531694
1494 8320842 8460833 8504481
1495 8598352 8212412 8416111
1496 8425376 8422685 8299837
1497 8577586 8174882 8397403
1498 8315124 8308383 8426279
1499 8566210 8449316 8439049
1500 8694705 8464994 8472139
1501 8629411 8873723 8568617
1502 8795409 8702111 8716636
1503 8406297 8913594 8839315
1504 8516511 8708142 8922421
1505 8460079 8943708 8947549
1506 8577372 9058198 8950190
1507 8666655 8879573 8916881
1508 8488854 9053847 8890167
1509 8680340 8706853 8887738
1510 8364930 8862509 8824133
1511 8546196 8610638 8701474
1512 8419122 8432297 8550863
1513 8555741 8612774 8443375
1514 8600203 8358925 8535911
1515 8494676 8586202 8383103
1516 8758075 8346764 8412755
1517 8463470 8538795 8484439
1518 8671423 8562913 8478605
1519 8506844 8497850 8643550
1520 8500269 8766194 8661147
1521 8760988 8672736 8697429
1522 8596232 8965789 8697743
1523 8705492 8889227 8919422
1524 8350462 9038887 9137338
1525 8438398 9113041 9145374
1526 8669944 8928434 8920242
1527 8569859 9090743 8794965
1528 8666236 8762342 8853698
1529 8233746 8865634 8891561
1530 8474039 8663775 8922057
1531 8267030 8534987 8825448
1532 8348421 8605874 8740508
1533 8419620 8362412 8703206
1534 8277079 8565148 8579876
1535 8481429 8294662 8597120
1536 8302334 8437069 8513475
1537 8534089 8367309 8458291
1538 8410619 8355199 8532271
1539 8360248 8481358 8505512
1540 8435388 8267360 8652095
1541 8197612 8657975 8778718
1542 8438909 8505394 8862034
1543 8166971 8653950 8902371
1544 8421552 8678487 8851715
1545 8286230 8570578 8976975
1546 8196720 8796061 8967545
1547 8301732 8490326 8970701
1548 8064448 8757683 8984091
1549 8333350 8506312 8952552
1550 8145119 8573516 8885847
1551 8298395 8512537 8698765
1552 8185884 8220393 8682781
1553 8089530 8392905 8581922
1554 8239676 8038595 8587136
1555 8021591 8290292 8524955
1556 8295829 8071032 8484425
1557 8139072 8051960 8465915
1558 8160406 8174154 8510268
1559 8214764 8016245 8558212
1560 8052812 8334939 8605688
1561 8289581 8147731 8617003
1562 8143190 8414108 8618419
1563 8328327 8352626 8678425
1564 8198283 8399165 8847659
1565 8159867 8651893 8906735
1566 8267348 8353656 8883512
1567 8081508 8584594 8792685
1568 8305194 8272376 8754349
1569 8014483 8404754 8779869
1570 8187758 8316102 8684935
1571 8158149 8172280 8639353
1572 8030381 8228311 8519795
1573 8126819 7805884 8500510
1574 7884471 8057815 8478086
1575 8225503 7922594 8451887
1576 7976550 7922968 8440874
1577 8166517 8007678 8332151
1578 8178585 7975794 8522764
1579 8131757 8282453 8524674
1580 8241251 8034302 8607452
1581 7899333 8281010 8665651
1582 8237106 8213030 8662354
1583 8060682 8220273 8741526
1584 8073591 8401048 8752582
1585 8041010 8111676 8845782
1586 7769221 8412474 8947495
1587 8008342 8143440 8927392
1588 7803270 8260540 8762612
1589 7961397 8001554 8693061
1590 7854757 7936903 8643796
1591 7925410 8070224 8537562
1592 8015824 7735846 8481075
1593 7741581 7953616 8507360
1594 7868612 7600936 8468023
1595 7705434 7728751 8396609
1596 8039689 7659222 8193331
1597 7960266 7541547 8246496
1598 7786074 7764961 8375960
1599 7934040 7554472 8407917
1600 7785726 7858592 8374494
1601 7932728 7727096 8613354
1602 7712003 7928687 8665906
1603 7937982 8077365 8629055
1604 7964128 8025622 8742147
1605 7937592 8350799 8691163
1606 8077617 8113219 8864916
1607 7725883 8256138 8882925
1608 7934354 8060519 8755885
1609 7797008 8110839 8826679
1610 7856951 8185538 8773616
1611 7972529 7885091 8667077
1612 7802105 8056275 8554750
1613 8006174 7763017 8535845
1614 7781908 7898740 8437307
1615 8033148 7729160 8318642
1616 7852849 7625895 8322292
1617 7955701 7764455 8239962
1618 8000356 7507354 8253319
1619 7737436 7791253 8350484
1620 7991242 7629962 8452375
1621 7683683 7904833 8633888
1622 7874636 7932827 8651986
1623 7847274 7948605 8782366
1624 7750595 8185790 8823163
1625 7913330 8012318 8883129
1626 7807613 8287408 8755188
1627 7920177 7999741 8849386
1628 7708509 8012474 8732721
1629 7927297 8075499 8629105
1630 7855687 7825485 8663792
1631 7771941 8100302 8608112
1632 7954241 7694118 8598402
1633 7638970 7934812 8608581
1634 7970848 7729634 8374742
1635 7949475 7750479 8264593
1636 8070677 7825509 8206794
1637 8050754 7539789 8240061
1638 7847576 7880390 8373069
1639 8030590 7671166 8438812
1640 7833345 7916236 8417582
1641 8036696 7936081 8575394
1642 7967100 8008593 8586701
1643 7852114 8182575 8764782
1644 8057325 7988585 8702895
1645 7784312 8276253 8798011
1646 7997302 8054854 8860653
1647 7709086 8236136 8912490
1648 7911282 8109813 8779896
1649 7769392 7933412 8781555
1650 7690437 8073518 8703115
1651 7891485 7812349 8719978
1652 7615059 7985467 8653434
1653 7964682 7725873 8518032
1654 7844633 7721137 8270815
1655 7974834 7671310 8238145
1656 7862040 7450884 8257686
1657 7762010 7793195 8348278
1658 7985591 7615143 8466195
1659 7671434 7811392 8492753
1660 8022298 7772221 8490995
1661 7994151 8003082 8561960
1662 8066023 8223395 8645708
1663 7974792 7918123 8742043
1664 7709645 8168403 8782038
1665 7998034 7889085 8671314
1666 7751056 8141041 8804184
1667 7861567 8057726 8859467
1668 7711852 8011111 8886215
1669 7702767 8175081 8817223
1670 7950268 7863939 8702596
1671 7759293 8014733 8495504
1672 7937524 7631380 8440127
1673 7707482 7720373 8425405
1674 7897630 7717917 8327881
1675 7876174 7510532 8336833
1676 7738352 7695642 8291806
1677 7912223 7479334 8359546
1678 7737552 7750714 8280808
1679 7947467 7544452 8346209
1680 7700829 7588027 8423580
1681 7784439 7823416 8529983
1682 7861909 7779322 8670011
1683 7767134 8089527 8627375
1684 8040534 7899415 8681206
1685 7735088 8133715 8771168
1686 7999407 8064636 8733260
1687 7845471 8112165 8817072
1688 7938549 8231233 8718741
1689 8059405 7996627 8705647
1690 7840839 8146675 8588518
1691 8145060 7877432 8519864
1692 7769293 7940178 8517869
1693 7909110 7858346 8491387
1694 7819237 7759972 8475241
1695 7803959 7883417 8462285
1696 7895184 7595388 8526327
1697 7689427 7919044 8440783
1698 7952463 7627847 8411024
1699 7722321 7627909 8327795
1700 7831328 7651647 8458528
1701 7852997 7613798 8434689
1702 7822383 7902509 8468496
1703 7887701 7706684 8605623
1704 7744708 8063443 8648517
1705 8041021 7921731 8616783
1706 7731765 8070044 8809738
1707 7854699 8107238 8755512
1708 7952485 7923015 8654793
1709 7927080 8143740 8555788
1710 8092581 7775614 8495545
1711 7713294 7958248 8543186
1712 7995218 7693479 8394733
1713 7822223 7687078 8342547
1714 7881601 7721907 8280347
1715 7954338 7455273 8234386
1716 7828770 7748492 8186659
1717 8009653 7482345 8250786
1718 7747101 7733910 8348162
1719 7917778 7680696 8407098
1720 7770356 7721876 8536388
1721 7872282 7942515 8480305
1722 8038772 7713608 8468657
1723 7765194 8102211 8659199
1724 8049037 7888724 8595181
1725 7802653 8057372 8663689
1726 7797213 8032812 8798999
1727 7744200 7855416 8816891
1728 7722999 8112145 8790961
1729 7853162 7807437 8774831
1730 7698850 8004605 8570778
1731 7909987 7784583 8636610
1732 7644810 7742429 8519079
1733 7987743 7721737 8253729
1734 7930349 7419973 8158440
1735 7912839 7646546 8031037
1736 8084085 7351756 8085034
1737 7771721 7571642 8119989
1738 7958165 7463299 8224121
1739 7696482 7542277 8349306
1740 7769302 7742292 8402002
1741 7863522 7596119 8498050
1742 7901577 8110767 8489963
1743 8161864 7896479 8573827
1744 7838726 8035798 8595878
1745 7994431 8027280 8637863
1746 7923486 7995954 8704508
1747 7940919 8174522 8631311
1748 7980566 7807413 8622931
1749 7839650 8105799 8559154
1750 8064332 7670133 8405108
1751 7765889 7796629 8379043
1752 7964041 7638380 8283776
1753 7805331 7508434 8334297
1754 7826987 7691130 8246381
1755 7960942 7347527 8207162
1756 7696436 7568803 8161537
1757 8105079 7423393 8034380
1758 7769342 7485555 8094575
1759 7928633 7552125 8143935
1760 7934833 7502209 8236790
1761 7759408 7747536 8336575
1762 7934032 7525482 8391362
1763 7655709 7752681 8443594
1764 7893477 7727235 8552703
1765 7645524 7809705 8652956
1766 7728521 7921935 8618299
1767 7813248 7673303 8654857
1768 7500757 7919041 8730143
1769 7797562 7569433 8566285
1770 7590189 7633062 8442336
1771 7742627 7572400 8455733
1772 7723175 7480947 8331572
1773 7843495 7587753 8145447
1774 7844217 7179015 8155192
1775 7690731 7473924 8052153
1776 8046189 7208819 7949995
1777 7808195 7410746 8026483
1778 7933495 7433573 8045847
1779 7802441 7351496 8186850
1780 7624718 7609886 8364716
1781 7768499 7364601 8411074
1782 7671279 7738567 8359428
1783 7947721 7482503 8334189
1784 7765302 7658435 8320507
1785 7892615 7744113 8364520
1786 7817178 7637318 8517613
1787 7763698 7916601 8483498
1788 7935465 7629016 8533893
1789 7640696 7857681 8537448
1790 7890536 7652244 8498711
1791 7759848 7672732 8414632
1792 7920940 7696332 8282879
1793 7911998 7402143 8213193
1794 7720213 7486293 8058622
1795 8012037 7190165 8005196
1796 7730939 7353683 7975941
1797 7986654 7253763 7965842
1798 7867297 7325499 7990194
1799 7924634 7570382 8071935
1800 8031914 7529010 8268068
1801 7813554 7920282 8407841
1802 8020070 7723034 8496482
1803 7690607 7965178 8624173
1804 8068306 8016080 8580180
1805 7918066 8054788 8740276
1806 7951792 8250460 8719443
1807 8084471 7957709 8649422
1808 7860244 8174526 8625741
1809 7892414 7872897 8770133
1810 7616148 7941281 8699040
1811 7852421 7954416 8631514
1812 7694210 7586286 8572862
1813 7713102 7809357 8419509
1814 7866215 7440306 8360072
1815 7639677 7650506 8271405
1816 7874445 7406108 8234760
1817 7686058 7432963 8217593
1818 7772728 7522005 8259635
1819 7714417 7348441 8335704
1820 7829359 7754326 8283861
1821 8006903 7549446 8394688
1822 7711808 7889907 8528149
1823 7896831 7769851 8570521
1824 7762285 7818795 8663603
1825 7799724 8117564 8719897
1826 7918136 8045116 8883421
1827 7751083 8323036 8912944
1828 7958503 8162913 9017347
1829 7793447 8353386 8888063
1830 8113906 8127171 8631504
1831 7932716 8073882 8781675
1832 7874026 8147641 8669074
1833 8081718 7867070 8579769
1834 7947783 8123551 8476516
1835 8261939 7862390 8348667
1836 7948626 7959316 8435651
1837 8043301 8091748 8575166
1838 8019387 7935840 8595137
1839 7932583 8096247 8496208
1840 8166869 7880867 8497168
1841 7996136 8202233 8487575
1842 8287782 8043441 8520133
1843 8051056 8118102 8606889
1844 8174414 8360062 8696370
1845 8190227 8303030 8814209
1846 8067574 8591695 8800889
1847 8257974 8206829 8794310
1848 7900268 8397009 8827819
1849 8146800 8166120 8726079
1850 8013072 8090558 8604224
1851 8103301 8101190 8460256
1852 8143167 7728642 8338297
1853 7992597 7878662 8184092
1854 8212519 7523811 8054717
1855 8020565 7636663 8016622
1856 8135110 7500945 7913145
1857 8002264 7363873 7988910
1858 7940487 7560668 7961454
1859 8071944 7332076 8057271
1860 7972625 7689897 8021722
1861 8137953 7575970 8182335
1862 7914631 7860909 8348712
1863 8108481 7953173 8367289
1864 8063162 7855356 8420682
1865 7959438 8088008 8507680
1866 8091581 7845575 8561544
1867 7773554 8018936 8565752
1868 8048905 7814653 8493170
1869 7777307 7772672 8564107
1870 7756004 7811008 8531947
1871 7804794 7483920 8498812
1872 7673717 7620206 8279709
1873 7940448 7401491 8264005
1874 7631185 7478266 8207724
1875 7834839 7338814 8168193
1876 7627868 7184953 8124167
1877 7762988 7355201 7927798
1878 8029062 7205559 7932592
1879 7585896 7427538 8162861
1880 7782163 7256981 8247802
1881 7519569 7461578 8328933
1882 7879665 7519583 8175333
1883 7853907 7428843 8217030
1884 7815323 7711173 8260981
1885 7906919 7477100 8365628
1886 7648495 7754252 8438277
1887 7869416 7507228 8404601
1888 7739076 7591368 8283238
1889 7863939 7633942 8340860
1890 7765755 7390006 8329952
1891 7530285 7559703 8330603
1892 7732180 7096548 8193618
1893 7581051 7345305 8080247
1894 7857626 7134475 7981463
1895 7790342 7061645 7816823
1896 7959327 7222344 7709619
1897 7961945 7008148 7813244
1898 7694752 7292606 7921588
1899 7709528 6996999 8066676
1900 7528559 7261519 8078810
1901 7895247 7260459 7942262
1902 7822619 7336050 8092744
1903 7780531 7561416 8145356
1904 7886640 7381243 8273772
1905 7631112 7694544 8342309
1906 7929736 7539099 8415015
1907 7640878 7738785 8425318
1908 7848764 7690435 8442932
1909 7795999 7540565 8403319
1910 7864039 7716784 8218736
1911 8088948 7499669 8256800
1912 7824231 7608607 8102940
1913 8039633 7356155 8074269
1914 7760689 7280775 8025073
1915 7768131 7209725 7933691
1916 7729884 6870261 7842720
1917 7650819 7222237 7888256
1918 7885727 6976049 7856664
1919 7572594 7144133 7902824
1920 7790228 7096890 7925504
1921 7670406 7125803 7982119
1922 7837384 7481470 8085932
1923 7873561 7258525 8161633
1924 7704831 7568120 8119688
1925 7864939 7230102 8155086
1926 7674207 7421116 8151127
1927 7957038 7381743 8048578
1928 7840671 7272589 8047495
1929 7818442 7429679 7971922
1930 7886512 6977543 7837657
1931 7757232 7166776 7702244
1932 8081222 6822004 7437759
1933 7871539 6865112 7425128
1934 7953639 6747200 7420214
1935 7909281 6580852 7335390
1936 7794589 6832631 7397845
1937 7852517 6610975 7572346
1938 7677920 7043781 7611601
1939 8184293 7026332 7566735
1940 8064704 7346816 7721764
1941 8300599 7606734 7778558
1942 8372996 7662911 7980287
1943 8301103 8189885 8127758
1944 8787063 8211449 8193929
1945 8817165 8765015 8250956
1946 9224648 8895458 8353846
1947 9200293 9062382 8427551
1948 9339108 9521887 8597184
1949 9579343 9561514 8698415
1950 9566356 10209871 8926040
1951 9948049 10245130 9143538
1952 9827500 10737707 9252677
1953 10337229 11089462 9347781
1954 10341958 11351498 9587241
1955 10520492 11938020 9773976
1956 10929996 12105931 9929969
1957 10869697 12685727 10107799
1958 11159837 12749829 10370864
1959 11069912 13285261 10614728
1960 11419657 13731901 10887000
1961 11384627 13820087 11118144
1962 11334607 14245425 11250380
1963 11363776 13964286 11351622
1964 10950134 14015949 11322083
1965 10929506 13571645 11363219
1966 10455266 13494828 11489199
1967 10309790 13102547 11269362
1968 9973532 12401573 11156603
1969 9365075 12027396 10974936
1970 9287495 11199048 10714234
1971 8752261 10773267 10362948
1972 8702458 9934330 9884542
1973 8164411 9357807 9725499
1974 7716302 8986714 9691277
1975 7474430 8351989 9614919
1976 7092460 8214211 9442406
1977 7217657 7704295 9304978
1978 6885287 7516114 9002830
1979 6946448 7157313 8815442
1980 6811080 7056245 8879285
1981 6718859 7218451 8883797
1982 6992050 6989992 8773559
1983 6886105 7230525 8623550
1984 7234307 7117319 8593052
1985 7106194 7359396 8606567
1986 7423528 7454831 8574860
1987 7322274 7394411 8693363
1988 7265831 7639848 8768718
1989 7456400 7350179 8695196
1990 7183492 7564645 8681589
1991 7470545 7377800 8651147
1992 7237849 7333189 8557294
1993 7571135 7395090 8297900
1994 7811032 7084984 7995118
1995 7678051 7314513 7994943
1996 7781753 7052678 8092507
1997 7522265 7307041 8134890
1998 7758706 7252844 8188131
1999 7614677 7283418 8147187
2000 7758809 7391026 8081130
2001 7847200 7197319 8137798
2002 7721024 7611205 8234710
2003 7907032 7412885 8291030
2004 7715340 7670744 8297773
2005 7923754 7632241 8300393
2006 7747953 7495016 8391619
2007 7729607 7696313 8313604
2008 7882398 7409087 8318498
2009 7680501 7691563 8270783
2010 7911282 7312495 8134438
2011 7677353 7383988 8089517
2012 7814398 7244363 7993275
2013 7753408 7082720 8029612
2014 7744308 7170244 7838050
2015 7893267 6881808 7818814
2016 7622818 7163948 7875615
2017 7805430 6983313 7879274
2018 7640394 7049582 7943954
2019 7736716 7243195 7949085
2020 7898742 7123621 7975856
2021 7748689 7417336 7976427
2022 7935341 7222169 8114148
2023 7573092 7482119 8253801
2024 7832696 7449644 8251343
2025 7807690 7447466 8180938
2026 7780078 7566092 8225644
2027 7828459 7287404 8202936
2028 7706284 7679549 8236573
2029 7978291 7370139 8151317
2030 7676173 7392740 8120790
2031 7872151 7320283 7994560
2032 7790003 7072407 7914272
2033 7755372 7291780 7894000
2034 7914434 6979456 7828550
2035 7648377 7157335 7764263
2036 7950112 6906535 7697622
2037 7757076 6996225 7728605
2038 7860591 7096292 7782196
2039 7724686 6940848 7920941
2040 7633769 7277231 7994094
2041 7829120 7070898 8040546
2042 7662939 7483239 8100315
2043 7902575 7240328 8089318
2044 7619302 7343186 8214842
2045 7740055 7514169 8172308
2046 7857140 7382098 8292023
2047 7725115 7625209 8211598
2048 7990455 7442570 8218400
2049 7672115 7651733 8313292
2050 8057799 7537795 8116396
2051 7969988 7479505 8092940
2052 7960709 7470310 7936039
2053 8044102 7180069 7925979
2054 7810357 7335610 7870528
2055 8074334 7039769 7776942
2056 7805341 7197570 7843279
2057 8046158 7257288 7802194
2058 7975596 7158113 7791493
2059 7845844 7298636 7841774
2060 8014499 7121572 7924146
2061 7805479 7453398 7943320
2062 8081815 7412538 8080489
2063 7891172 7590742 8122203
2064 8068432 7723562 8163621
2065 7928933 7708276 8393392
2066 7829040 7874971 8365640
2067 8079045 7527576 8286289
2068 7838800 7777658 8246104
2069 8142679 7653760 8223864
2070 7948854 7628230 8211802
2071 7966009 7717477 8217953
2072 8069053 7445077 8146620
2073 7883451 7592030 7992938
2074 8048870 7184006 7984884
2075 7757456 7287081 7927759
2076 8108961 7290193 7854274
2077 7987230 7353448 7964109
2078 7953386 7474922 7887878
2079 8140475 7274616 7882368
2080 7975073 7641477 7968558
2081 8280779 7503702 7983178
2082 7942951 7785369 8207919
2083 8078416 7737184 8241518
2084 8029337 7707854 8350842
2085 8086772 8045934 8362556
2086 8179258 7767063 8383785
2087 7905304 8010050 8327664
2088 8058274 7730925 8403283
2089 7877851 7823482 8380900
2090 8100365 7878459 8301894
2091 8101798 7641553 8233709
2092 8060365 7799431 8017814
2093 8327566 7437000 7948842
2094 8031295 7591721 7896996
2095 8362086 7438147 7802091
2096 8178198 7552632 7852923
2097 8260182 7662584 7917495
2098 8341071 7498576 7899582
2099 8129218 7820164 7958941
2100 8312547 7566671 8054498
2101 8054350 7768789 8015642
2102 8345648 7876389 8200993
2103 8206652 7901669 8291171
2104 8190346 8179346 8353167
2105 8374401 8012687 8499977
2106 8131863 8333983 8429465
2107 8534425 8166889 8390895
2108 8276434 8242545 8386542
2109 8583430 8262887 8219777
2110 8466004 8051230 8226785
2111 8510466 8256212 8089971
2112 8496511 7879052 8169994
2113 8208210 8049111 8143179
2114 8486857 7852835 8126939
2115 8301245 7884703 7970356
2116 8549866 7953767 7925989
2117 8578405 7879289 8030030
2118 8367640 8098208 8111194
2119 8484249 7849549 8189795
2120 8400752 8194363 8138622
2121 8645102 8149671 8189387
2122 8631604 8299295 8270867
2123 8730614 8528247 8310293
2124 8707244 8308525 8355896
2125 8496093 8577872 8400404
2126 8598594 8313771 8499393
2127 8402319 8569478 8549803
2128 8743834 8492177 8367817
2129 8765244 8358666 8229657
2130 8587899 8525340 8284996
2131 8717162 8209827 8273491
2132 8420268 8291335 8173071
2133 8653588 8095849 8191128
2134 8475625 8197581 8167766
2135 8597348 8167590 8091087
2136 8567484 8052598 8184697
2137 8457505 8307001 8222911
2138 8769520 8129500 8167884
2139 8528118 8399013 8183771
2140 8772572 8359774 8262647
2141 8546042 8396597 8387546
2142 8572927 8651654 8508020
2143 8659480 8483538 8575398
2144 8596685 8834328 8550413
2145 8841649 8654498 8578213
2146 8572340 8815698 8604748
2147 8788425 8735703 8587047
2148 8584834 8627873 8655767
2149 8654913 8838478 8556219
2150 8812535 8420112 8395324
2151 8535983 8635353 8406952
2152 8696686 8299748 8323974
2153 8491174 8343213 8302352
2154 8568600 8287080 8211867
2155 8592848 8043841 8164880
2156 8563979 8309055 8104863
2157 8739895 8085305 8127758
2158 8487170 8289916 8093409
2159 8723136 8056779 8114416
2160 8526434 8253872 8180799
2161 8526514 8293806 8258076
2162 8592570 8297125 8437033
2163 8398664 8542968 8444305
2164 8649369 8434082 8553138
2165 8458830 8746991 8643569
2166 8728156 8608080 8535353
2167 8532721 8587051 8643474
2168 8473832 8716994 8632691
2169 8577423 8397058 8569578
2170 8440086 8647452 8496634
2171 8622026 8264483 8392653
2172 8326173 8260863 8336132
2173 8544662 8168876 8198235
2174 8453312 7981057 8190471
2175 8364339 8063024 8089500
2176 8520602 7893873 8231220
2177 8108506 8016907 8235893
2178 8546235 7960803 8210251
2179 8352542 8175819 8283957
2180 8538200 8192313 8215248
2181 8371074 7950851 8284399
2182 8205892 8232676 8307139
2183 8403188 7973674 8409352
2184 8119261 8261290 8450200
2185 8432506 8288216 8534050
2186 8157657 8225455 8552439
2187 8177020 8313823 8551488
2188 8201162 8071166 8584444
2189 8151412 8370932 8522611
2190 8380260 7946787 8341886
2191 8147773 8072566 8274765
2192 8260268 7827309 8198433
2193 8049584 7765178 8272318
2194 8267369 7882714 8046451
2195 8345224 7609266 8057094
2196 8098518 7871126 8106226
2197 8268281 7647721 8131267
2198 8071292 7686638 8047058
2199 8299559 7721403 8011967
2200 8252673 7649204 8042157
2201 8097208 7901122 8104463
2202 8400901 7804515 8234396
2203 8015241 8004507 8314190
2204 8110604 7886838 8464677
2205 8023269 8040770 8470794
2206 8156305 8096757 8436524
2207 8060426 7923972 8571217
2208 7836516 8094861 8559738
2209 8059731 7752468 8526384
2210 7765351 7852013 8426300
2211 8094536 7723838 8268689
2212 7972801 7610071 8154296
2213 8008510 7633793 8067234
2214 8024939 7165749 7918989
2215 7946292 7458238 7806659
2216 8171523 7195115 7805458
2217 7940442 7382989 7846825
2218 8273370 7360737 7655005
2219 8176554 7368880 7810274
2220 8095269 7645477 7959490
2221 8113062 7387228 8064736
2222 7913507 7799889 8233687
2223 8117865 7608492 8245863
2224 7874941 7780787 8319510
2225 8097975 7842620 8336548
2226 8002582 7668259 8315636
2227 7841857 7879551 8323342
2228 7971596 7567867 8421994
2229 7774133 7869125 8425725
2230 8018728 7649547 8278635
2231 7917383 7641203 8200656
2232 8001452 7610838 8044960
2233 8022229 7358637 8084507
2234 7785977 7464511 7965602
2235 8002927 7110486 7904083
2236 7843190 7309887 7828468
2237 8020200 7245058 7886717
2238 8046543 7389332 7900955
2239 8032432 7580759 7950216
2240 8075605 7273028 7998942
2241 7944391 7670125 8051803
2242 8177913 7523027 8160272
2243 7997979 7770354 8169257
2244 8087590 7799201 8296212
2245 7946186 7680266 8367199
2246 7774932 7865440 8372111
2247 8020997 7654870 8427994
2248 7732825 7844669 8358202
2249 8149663 7622749 8203010
2250 7881148 7644434 8220621
2251 8014372 7669342 8192068
2252 8050442 7378877 8010399
2253 8008888 7619400 7934105
2254 8205960 7301989 7874792
2255 7700967 7357138 7973966
2256 7980504 7254927 7962309
2257 7759640 7232655 7965972
2258 8040404 7427170 7840614
2259 8092902 7245791 7909176
2260 7937100 7543965 7940438
2261 8124475 7326457 8008989
2262 7780113 7643479 8233872
2263 7856013 7475437 8268848
2264 7931764 7525538 8167040
2265 8100436 7919674 8194779
2266 8211317 7608017 8210315
2267 7858797 7871928 8300625
2268 7995840 7626121 8399705
2269 7808651 7687539 8259871
2270 8080105 7622792 8095546
2271 8002936 7455478 8085717
2272 8008301 7631947 7957909
2273 8180164 7293843 7948585
2274 7883031 7492668 7886844
2275 8146980 7257036 7827324
2276 7942485 7323459 7854754
2277 7923406 7312434 7895609
2278 7960229 7134505 7887071
2279 7821003 7469098 7956755
2280 8051878 7246748 8053914
2281 7765252 7501045 8029702
2282 8051213 7430528 8072769
2283 7941740 7521595 8118979
2284 8074050 7746160 8111960
2285 8156608 7640275 8246988
2286 8021535 7920614 8242577
2287 8198408 7604792 8239532
2288 7873308 7817233 8304652
2289 7930860 7627445 8359495
2290 7850802 7595117 8307828
2291 7987831 7820214 8194745
2292 8188426 7378413 7951051
2293 8129593 7594348 7728201
2294 8262060 7298888 7751037
2295 7895869 7239320 7767250
2296 8055326 7304976 7807127
2297 8008123 7254055 7920945
2298 7960388 7464162 7807951
2299 8101874 7183812 7898541
2300 7885194 7520666 7893221
2301 8229159 7518110 8012548
2302 8038886 7695314 8176535
2303 8089368 7744504 8154269
2304 8111659 7536815 8195882
2305 7924624 7834636 8203088
2306 8040120 7455792 8246735
2307 7778065 7708051 8263202
2308 7945549 7599800 8329041
2309 7658378 7462940 8365640
2310 7889086 7722027 8223531
2311 8058402 7436733 8180522
2312 7772007 7591829 8106852
2313 8063935 7291701 7999440
2314 7801777 7419844 8001431
2315 8060746 7332873 7854409
2316 7931263 7191722 7882637
2317 7847235 7255144 7787622
2318 8071149 7010227 7773291
2319 7853208 7444375 7879793
2320 8138625 7263317 7887912
2321 7948836 7394118 7940876
2322 8112429 7581276 8018761
2323 8012027 7438106 8115601
2324 8006810 7767150 8140349
2325 8066624 7473785 8283297
2326 7865856 7755637 8228335
2327 8177817 7667485 8141769
2328 7853565 7664510 8348132
2329 7944472 7666445 8193419
2330 8002544 7426950 8103162
2331 7849212 7634137 8073948
2332 7993296 7168384 7932554
2333 7767713 7421678 7967770
2334 8023389 7236978 7841319
2335 7801708 7121066 7814848
2336 7848985 7218028 7771826
2337 7963467 6977723 7809425
2338 7610030 7241659 7886283
2339 7957518 7049353 7877388
2340 7927392 7344058 7814284
2341 8049895 7339874 7851117
2342 7951659 7413867 8072766
2343 8076756 7635776 7939471
2344 8253089 7474524 8021066
2345 7988296 7871877 8172784
2346 8013922 7435126 8217267
2347 7634177 7496185 8319517
2348 7783250 7451439 8230797
2349 7950023 7312296 8022168
2350 7934241 7511181 7890630
2351 8102084 7169316 7931188
2352 7649667 7251749 7928545
2353 8103776 7183684 7819088
2354 7799201 7136198 7790988
2355 7884311 7164569 7757940
2356 8103661 7064304 7606751
2357 7884350 7249885 7644795
2358 7988481 6890073 7691557
2359 7716973 7223968 7798153
2360 7987908 7183820 7838376
2361 7801450 7205969 7937032
2362 7892595 7452231 7982794
2363 7976332 7245948 8093698
2364 7753107 7538959 8105533
2365 8076013 7404556 8124883
2366 7777981 7510411 8132510
2367 8013291 7588471 8149434
2368 7965015 7530975 8221182
2369 7916614 7605754 8058358
2370 8018346 7306694 8124470
2371 7772276 7593927 8119434
2372 8018031 7309874 8028749
2373 7804572 7348398 7963073
2374 7958453 7244406 7803088
2375 7973655 6973756 7684134
2376 7861121 7173783 7623853
2377 8009948 6909252 7680901
2378 7775078 7136167 7670203
2379 7935490 7084481 7835148
2380 7817066 7122973 7849541
2381 7842973 7253743 7915345
2382 8060272 7200026 7930574
2383 7873035 7579100 8011261
2384 8143063 7339340 7968481
2385 7909342 7575040 8061050
2386 8000824 7485582 8133206
2387 7896311 7467912 8155549
2388 7931856 7673404 8086543
2389 8028125 7343213 8100291
2390 7817038 7553791 8024433
2391 8067554 7302992 8013855
2392 7775027 7292447 7947281
2393 7779143 7130941 7907683
2394 7746842 6956681 7852820
2395 7818424 7127155 7680547
2396 8012129 6852003 7636681
2397 7804870 7043067 7534937
2398 8003483 6846854 7569680
2399 7696645 6912263 7733724
2400 7870448 7047916 7681930
2401 7785027 6812890 7777232
2402 7740487 7288156 7834388
2403 8121424 7147035 7832796
2404 7833408 7378738 7947100
2405 7931257 7255632 7992455
2406 7933291 7281807 7937591
2407 7870116 7434826 8048552
2408 7812840 7204146 8151342
2409 7700944 7416730 7999070
2410 8025025 7187923 7904160
2411 7762390 7299555 7916136
2412 7957800 7131336 7731002
2413 7900082 7018143 7759635
2414 7856524 7235296 7699706
2415 8081666 6810916 7538654
2416 7685622 6954009 7565222
2417 7980176 6818306 7563431
2418 7726234 6886246 7686328
2419 7857993 7062984 7707167
2420 7872112 6914917 7798728
2421 7754020 7261389 7877042
2422 7925809 7111462 8010147
2423 7793453 7461755 8030983
2424 8084356 7442865 8036468
2425 7918157 7503885 8136356
2426 7903330 7584262 8089494
2427 8079258 7422151 8174470
2428 7818255 7781942 8278336
2429 8020903 7520255 8242553
2430 7762662 7566676 8180749
2431 7879206 7408348 8118214
2432 7846882 7221987 8005958
2433 7710220 7353320 8007077
2434 7843001 6990115 7894305
2435 7780476 7257145 7765432
2436 7981742 6997566 7745339
2437 7761713 7070082 7694895
2438 7936669 7221259 7759608
2439 7930223 7039186 7795263
2440 7793047 7292708 7851186
2441 7940987 7070334 7916105
2442 7690874 7347830 8038962
2443 7909959 7283030 8094041
2444 7738382 7418510 8173159
2445 7850723 7552895 8168224
2446 8053492 7462432 8102762
2447 8090118 7793534 8059166
2448 7912586 7485586 8420062
2449 7724800 7787150 8378803
2450 8007122 7751621 8343851
2451 7791434 7604173 8348494
2452 7811841 7689267 8219386
2453 7989968 7301994 8079334
2454 7768388 7496674 8059117
2455 8052882 7216951 7940198
2456 7995733 7441471 7818887
2457 8109902 7463062 7876710
2458 7969079 7355944 8027492
2459 8029433 7725427 7972604
2460 8179760 7454960 8044598
2461 7981166 7706743 8021047
2462 8252825 7649680 8131950
2463 8169385 7755111 8123775
2464 8185280 7810541 8167164
2465 8233725 7706859 8171744
2466 8007709 7921601 8259249
2467 8259594 7683232 8252301
2468 8019441 7898025 8249281
2469 8163624 7698088 8192694
2470 8035545 7662554 8165802
2471 8086867 7773208 8094719
2472 8127753 7321405 7922916
2473 7966923 7436027 7767714
2474 8250216 7148901 7655011
2475 7931150 7142532 7594972
2476 8134087 7054044 7541133
2477 7983663 6946651 7530379
2478 8171939 7170593 7421802
2479 8267923 6981182 7518798
2480 8008068 7223527 7516951
2481 8175110 7034092 7615430
2482 7890418 7333900 7847748
2483 8033452 7416103 7973851
2484 8035064 7287605 7962492
2485 8018625 7610958 7966989
2486 8215225 7341027 7946961
2487 7856127 7666519 8133071
2488 7911487 7356013 8151430
2489 7854856 7386799 8017307
2490 8022386 7346994 7831912
2491 8047397 7226464 7929636
2492 7759860 7319690 7867469
2493 8086628 6955231 7671323
2494 7984943 7140475 7504120
2495 8106168 6885273 7439124
2496 7859654 6674402 7367574
2497 7736381 6754185 7391924
2498 7738660 6446551 7486877
2499 7570117 6821510 7542927
2500 7979093 6658628 7450516
2501 7672413 6940179 7598594
2502 7965843 6931091 7545677
2503 7828710 6914588 7718310
2504 7744075 7253931 7870679
2505 7967048 7054170 7849710
2506 7870608 7391071 7854332
2507 8102107 7165850 7848918
2508 7639068 7158643 7941993
2509 8012374 7219811 7762972
2510 8025318 7070449 7732415
2511 7947918 7314528 7712231
2512 8144170 6895724 7597512
2513 7877946 7110085 7538096
2514 7980938 6770889 7460715
2515 7738290 6639489 7441546
2516 7872700 6822392 7391059
2517 7997976 6579584 7338390
2518 7755395 6903486 7405379
2519 8033050 6738233 7466100
2520 7769102 6965535 7522742
2521 8028459 6899870 7463714
2522 7935951 6878726 7587238
2523 7895496 7184819 7669605
2524 7954018 6924777 7801292
2525 7732218 7295667 7871372
2526 7979642 7007379 7826014
2527 7576734 6995670 7872067
2528 7846029 7161334 7860655
2529 7841683 7019161 7843921
2530 7950871 7236393 7628618
2531 8150917 6875190 7536391
2532 7798732 7045421 7546416
2533 7768490 6695784 7719109
2534 7735013 6698209 7507389
2535 7870244 6670674 7320147
2536 7834392 6457943 7394736
2537 7581554 6715621 7491727
2538 7727701 6534076 7561835
2539 7676419 6840733 7478429
2540 7854615 6698350 7474456
2541 7813065 6840533 7595245
2542 7843739 7131408 7651437
2543 8003037 6896355 7686698
2544 7665618 7184092 7803537
2545 8042897 6958187 7671988
2546 7829774 7108280 7626777
2547 7909712 6918843 7616179
2548 7765392 6747213 7649603
2549 7805250 6888702 7399470
2550 8125506 6530606 7295590
2551 7861525 6788142 7281823
2552 8107368 6385761 7070788
2553 7966196 6430326 6937060
2554 7977301 6440155 7003330
2555 7816773 6120104 6984286
2556 7802332 6439867 6949099
2557 8040728 6191304 6993000
2558 7804709 6558867 7040584
2559 8101148 6620939 7220829
2560 8027879 6823781 7347017
2561 8150548 7120113 7386237
2562 8203623 7054459 7651504
2563 8359308 7798252 7698680
2564 8774578 7782497 7838479
2565 8482755 8131512 8018880
2566 8908263 8369093 8016613
2567 9148007 8515516 8008445
2568 9334339 9017109 8112796
2569 9543835 9117914 8361762
2570 9457898 9697802 8544416
2571 9787972 9767272 8716811
2572 9831051 10206352 8816430
2573 10281137 10575811 8864332
2574 10194978 10640480 9114634
2575 10343134 11171513 9181409
2576 10690399 11214017 9345765
2577 10552518 11671808 9448686
2578 11123994 12034662 9602670
2579 11004443 12387148 9915294
2580 11174577 12988533 10240486
2581 11212936 12903995 10443741
2582 10829225 13154659 10636250
2583 11013849 13057129 10788276
2584 10645085 13205677 10866046
2585 10811428 12976660 10816659
2586 10432770 12395150 10527731
2587 10134760 11874180 10146506
2588 9729633 10930197 9950420
2589 9209291 10542663 9626923
2590 9132346 9602373 9283415
2591 8557327 9195921 9029776
2592 8309859 8449122 8749233
2593 7993678 7791727 8428828
2594 7547276 7465628 8283186
2595 7347426 6736738 8169256
2596 6955053 6828173 8170664
2597 7146387 6414239 8075311
2598 6974102 6306416 7793989
2599 7096100 6187670 7653902
2600 7117856 6081951 7691203
2601 7094045 6449799 7663377
2602 7401160 6290542 7705055
2603 7197434 6642899 7781821
2604 7450227 6723230 7971953
2605 7272986 6810918 8078420
2606 7416905 7032909 8058318
2607 7503988 6727835 7994698
2608 7274474 7067598 8045326
2609 7545309 6748012 8000082
2610 7337549 6890054 7990084
2611 7613135 6835727 7832129
2612 7477112 6712049 7892050
2613 7398232 6881041 7856527
2614 7651121 6503217 7647049
2615 7652912 6659777 7278255
2616 8028334 6422106 7152097
2617 7675342 6459957 7253241
2618 7896420 6552016 7186206
2619 7909070 6480151 7276514
2620 7815459 6767999 7285120
2621 7967314 6514462 7366718
2622 7791814 6900025 7441156
2623 8016849 6847126 7559810
2624 7957456 7059869 7607207
2625 8061645 7171595 7602706
2626 7980557 7000796 7736190
2627 8079147 7406883 7601731
2628 8190130 7064854 7698055
2629 7946488 7270951 7677325
2630 8028344 7052007 7678445
2631 7837528 6945239 7696637
2632 7995067 7155493 7542004
2633 8064715 6707383 7420569
2634 7879455 6768422 7195111
2635 8009256 6404136 7204879
2636 7811249 6537450 7143803
2637 8167904 6640695 7076813
2638 7994265 6495638 7140060
2639 7793161 6659513 7201547
2640 8011669 6482102 7218916
2641 7879054 6891423 7296352
2642 8105853 6829298 7470840
2643 7949239 7054716 7558540
2644 8079444 7151695 7577757
2645 8087334 7021167 7649426
2646 7916781 7309898 7720835
2647 8022114 6922181 7703473
2648 7765884 7130916 7727125
2649 7994845 7034391 7686675
2650 7866355 6918046 7627461
2651 7931257 6982702 7447041
2652 8066873 6653932 7374226
2653 7840197 6771528 7246543
2654 8202127 6530113 7131525
2655 7894347 6518580 7085760
2656 8092270 6559337 7009650
2657 7922965 6416847 7129327
2658 7921046 6785670 7188093
2659 8174313 6584600 7205874
2660 7826901 6869910 7352180
2661 8090210 6760636 7349358
2662 7865919 6836874 7420775
2663 7953193 7004371 7538075
2664 8106350 6974406 7584670
2665 8050347 7420356 7689647
2666 8165887 7075398 7720877
2667 7972940 7398358 7781093
2668 8180880 7261270 7741185
2669 8207076 7151941 7523647
2670 8053610 7174098 7576545
2671 8178828 6942614 7599203
2672 7991360 7049822 7371758
2673 8183191 6637780 7218748
2674 7968894 6747322 7213235
2675 8115928 6669072 7135973
2676 8003048 6499250 7151817
2677 8104299 6802248 7058492
2678 8061505 6432534 7200530
2679 7853665 6703739 7185663
2680 8153756 6625198 7207824
2681 7971519 6761691 7277824
2682 8054876 7012333 7431199
2683 8020187 6892549 7606512
2684 7953356 7374199 7704999
2685 8394082 7278947 7688636
2686 8130937 7458259 7656752
2687 8365670 7316425 7658031
2688 8109143 7217974 7669525
2689 8169998 7369147 7660801
2690 8196971 7044309 7617896
2691 8060828 7279691 7484318
2692 8554911 7111063 7323202
2693 8342679 7217582 7265087
2694 8467935 7088195 7250930
2695 8241869 6829867 7217101
2696 8223323 7019129 7116232
2697 8571877 6839433 7104188
2698 8227255 7037563 7163598
2699 8388846 6815740 7202132
2700 8208909 7031846 7259061
2701 8319838 7168105 7362320
2702 8245074 7028991 7534244
2703 8127345 7426490 7619437
2704 8439081 7308050 7653706
2705 8316038 7653373 7568883
2706 8722513 7537490 7493193
2707 8439104 7580887 7724949
2708 8370932 7617079 7736976
2709 8471875 7312489 7613849
2710 8225601 7498511 7577410
2711 8445226 7228751 7579949
2712 8399449 7414181 7411349
2713 8526021 7205538 7327777
2714 8325626 7042242 7345100
2715 8284157 7210828 7318617
2716 8493547 6962999 7298102
2717 8263024 7220747 7307848
2718 8537310 7092600 7281172
2719 8418896 7166770 7267391
2720 8571346 7391870 7285656
2721 8632631 7244198 7357654
2722 8378137 7545283 7487217
2723 8774368 7434677 7473826
2724 8403222 7660142 7526687
2725 8709266 7628655 7605688
2726 8633362 7708872 7622793
2727 8681278 7925754 7672420
2728 8636669 7640352 7779085
2729 8494953 7938813 7718882
2730 8742204 7670994 7720723
2731 8515525 7806036 7745615
2732 8765616 7818544 7616559
2733 8672976 7573576 7543749
2734 8611437 7717020 7475262
2735 8698930 7257068 7404604
2736 8459509 7504199 7404043
2737 8654041 7342559 7434129
2738 8505097 7452388 7451996
2739 8677028 7564593 7377264
2740 8605695 7367641 7468547
2741 8524748 7725970 7545290
2742 8763786 7608255 7678676
2743 8608562 7977573 7694751
2744 8833466 7925779 7733929
2745 8696918 8030809 7843904
2746 8733033 8155015 7795757
2747 8844435 7956543 7878172
2748 8629009 8154213 7825521
2749 8922718 7957022 7839366
2750 8642364 8075864 7838342
2751 8933627 7949679 7678556
2752 8886966 7875027 7634300
2753 8750478 7921294 7545110
2754 8872437 7574259 7533319
2755 8492689 7682685 7475829
2756 8876365 7429088 7330042
2757 8702578 7545836 7291005
2758 8849279 7647379 7352059
2759 8870234 7533977 7366450
2760 8781436 7813497 7417231
2761 8953954 7672948 7493974
2762 8731091 7909217 7503707
2763 8927507 7860039 7624185
2764 8758429 8034386 7786375
2765 8871451 8241849 7786616
2766 8996512 7997492 7762731
2767 8707111 8288229 7861487
2768 8858978 8053295 8026190
2769 8536977 8086483 7937727
2770 8843766 8005793 7766304
2771 8785375 7865730 7696850
2772 8855075 8096202 7589274
2773 9003995 7673360 7471161
2774 8751294 7843645 7417796
2775 8964730 7562884 7349203
2776 8853613 7639126 7288791
2777 8931554 7658276 7299172
2778 8840686 7445441 7302063
2779 8568045 7637956 7425551
2780 8665238 7350889 7521943
2781 8436690 7770088 7678958
2782 8776074 7647432 7602427
2783 8507111 7785316 7795634
2784 8750008 8091904 7792139
2785 8688481 7838938 7893156
2786 8506570 8037061 7839422
2787 8814100 7900791 7882849
2788 8719361 8259632 7851815
2789 9034416 8133940 7728958
2790 8759015 8033983 7898673
2791 8438969 7948420 7865436
2792 8544487 7630539 7844936
2793 8361347 7820740 7723245
2794 8644767 7520494 7640542
2795 8422961 7528905 7597519
2796 8668374 7583017 7515498
2797 8606037 7380386 7464378
2798 8568502 7584378 7367036
2799 8769633 7241181 7282998
2800 8397711 7444957 7377055
2801 8670684 7380748 7421076
2802 8408728 7446410 7557938
2803 8513333 7683748 7673036
2804 8494592 7509267 7767391
2805 8259848 7850795 7891442
2806 8580710 7661274 7908525
2807 8375307 7889824 7848227
2808 8641931 7805160 7820909
2809 8406967 7707866 7898653
2810 8359889 7865397 7873689
2811 8430362 7482962 7796485
2812 8128947 7611435 7729338
2813 8485793 7305872 7601140
2814 8303760 7437986 7519805
2815 8425328 7284426 7430738
2816 8347397 7086820 7400408
2817 8214154 7281122 7439142
2818 8392367 6974164 7407984
2819 8171656 7248208 7364972
2820 8479117 7109866 7435908
2821 8243111 7182378 7448394
2822 8412897 7276773 7384223
2823 8265574 7134069 7585205
2824 8070029 7446160 7666018
2825 8452875 7257573 7616500
2826 8140221 7468306 7621258
2827 8424726 7392928 7674922
2828 8222198 7336426 7670122
2829 8198385 7427574 7631116
2830 8269333 7173347 7634435
2831 8152272 7424431 7563682
2832 8390226 7092796 7469933
2833 8042255 7063744 7418989
2834 8229902 6983469 7346979
2835 8107920 6767936 7295869
2836 8107773 6957390 7241177
2837 8201919 6678957 7277737
2838 7957851 6953597 7329847
2839 8234825 6850578 7343388
2840 8103327 6969596 7355725
2841 8291627 7057669 7296469
2842 8278551 6964043 7361096
2843 8204330 7282327 7464019
2844 8304023 6965298 7483093
2845 8066666 7287005 7557610
2846 8219614 7145157 7629188
2847 8182703 7338313 7642687
2848 8236139 7450031 7614586
2849 8221139 7160870 7698720
2850 7984001 7361609 7660174
2851 8326920 7024146 7484440
2852 8145192 7133142 7372937
2853 8246037 6897294 7275068
2854 8059871 6719996 7320682
2855 7821213 6871750 7441765
2856 8036538 6580963 7328745
2857 7834164 6753019 7217530
2858 8219297 6616910 7176304
2859 8161094 6815868 7082332
2860 8177599 6805769 7138692
2861 8244257 6695356 7225531
2862 8097375 7045299 7328628
2863 8304709 6982390 7460249
2864 8034872 7247528 7551973
2865 8260045 7162948 7576117
2866 8110009 7247195 7664299
2867 8141309 7378667 7634534
2868 8164271 7092027 7692223
2869 8156915 7330990 7478487
2870 8291180 7077454 7538772
2871 8009628 7198119 7581816
2872 8050372 7040886 7556200
2873 7947810 6796261 7480431
2874 8022762 6992869 7248303
2875 8187858 6639577 7258129
2876 7926019 6774210 7193796
2877 8231200 6617563 7162467
2878 8033738 6716308 7184701
2879 8109539 6831300 7224554
2880 8091102 6723209 7313162
2881 8096139 7049507 7330004
2882 8221614 6843390 7405782
2883 7935707 7179558 7555801
2884 8303310 7186674 7541776
2885 8257349 7264789 7571863
2886 8362158 7510489 7576787
2887 8287917 7252582 7696125
2888 8002072 7483632 7768515
2889 8340132 7220295 7638376
2890 8067666 7271695 7596942
2891 8248368 7141565 7535625
2892 8033326 7012304 7627133
2893 7812834 6988713 7538233
2894 8062000 6710579 7426915
2895 7928587 6946613 7351515
2896 8251352 6805441 7300674
2897 8064921 6896444 7258695
2898 8109125 6860664 7287299
2899 8134022 6722728 7315659
2900 8007615 7019653 7349708
2901 8225755 6774867 7381295
2902 7941431 7055249 7437107
2903 8197536 7020436 7485493
2904 8032075 7075648 7610743
2905 8110054 7290810 7651285
2906 8147090 7084436 7745308
2907 8089480 7450785 7683213
2908 8316986 7188954 7669729
2909 8051766 7331523 7642098
2910 8180343 7245867 7681947
2911 8123477 7110864 7565066
2912 8181142 7208810 7423550
2913 8200539 6781926 7376617
2914 7970880 7001545 7323037
2915 8229613 6696753 7242157
2916 8000134 6752140 7249683
2917 8082297 6781029 7213347
2918 8118453 6630526 7221930
2919 8105980 6926599 7149257
2920 8280711 6692108 7256864
2921 8027065 6951587 7296592
2922 8224562 6849024 7320726
2923 8047502 6950842 7458765
2924 8124160 7223271 7490255
2925 8221778 7064934 7561819
2926 8012315 7328920 7570264
2927 8334960 7098560 7558963
2928 8078807 7224589 7514591
2929 8166460 7141404 7548413
2930 8090395 7020157 7553657
2931 8095296 7225079 7456922
2932 8243721 6903783 7477204
2933 7917412 7017656 7392273
2934 8229283 6759550 7328742
2935 8008579 6754260 7175772
2936 8182781 6773740 7079760
2937 8209729 6580319 7087664
2938 8106330 6783087 7058302
2939 8232841 6555441 7148054
2940 7912297 6755574 7239287
2941 8166428 6775034 7358005
2942 8008403 6877251 7431135
2943 8140741 7056874 7386979
2944 8070516 6785766 7402693
2945 7924871 7103057 7456012
2946 8160586 6870375 7523187
2947 7950530 7071103 7489665
2948 8085041 6989887 7584483
2949 7892301 6900748 7611106
2950 7998785 7058955 7446203
2951 8177312 6791800 7371527
2952 8019448 7100481 7330595
2953 8448215 6781776 7094863
2954 8150717 6841254 7075900
2955 8240547 6772691 7078873
2956 8163016 6606783 7075339
2957 8063949 6776859 7081857
2958 8241906 6572359 7165710
2959 8024623 6881526 7155032
2960 8240435 6800355 7308702
2961 7896985 6849638 7374105
2962 8013358 6850298 7362060
2963 8104459 6868152 7452755
2964 7976610 7048928 7394080
2965 8399991 6988372 7428027
2966 7943595 7177662 7604661
2967 8263955 7100033 7504441
2968 8138806 7034017 7480590
2969 7962144 7064601 7547137
2970 8111550 6794695 7417593
2971 7947094 7020060 7377699
2972 8208665 6722196 7300907
2973 7951436 6776214 7142038
2974 8232302 6608291 7053910
2975 8109981 6508040 6993959
2976 8064669 6690031 6968308
2977 8179905 6328098 7011277
2978 7968944 6635526 7024071
2979 8302777 6536996 7028706
2980 8029615 6684502 7123467
2981 8268470 6774352 7068004
2982 8173864 6670013 7200613
2983 8134092 6971239 7217345
2984 8312844 6716285 7302627
2985 8050664 7083249 7323280
2986 8265603 6910977 7411997
2987 8025347 7007635 7455830
2988 8091496 7121312 7509554
2989 7962531 6847654 7613560
2990 7883260 7102764 7468620
2991 8216798 6751621 7338913
2992 7979902 6847459 7206364
2993 8159225 6560110 7039336
2994 7877633 6402689 7131779
2995 7885762 6594129 7070517
2996 7997978 6289321 7098035
2997 7849553 6598327 7096193
2998 8160395 6451543 7127061
2999 7968741 6622178 7042047
3000 8170134 6671648 7065003
3001 8230076 6744150 7132092
3002 8127828 6938200 7204337
3003 8211350 6799325 7396261
3004 8095881 7133622 7317193
3005 8440495 6991037 7296989
3006 8143672 7124598 7435394
3007 8262275 7146417 7410323
3008 8213218 6958280 7434518
3009 8018889 7167188 7521629
3010 8199461 6963300 7576748
3011 7994826 7145271 7447325
3012 8147519 6923102 7444877
3013 7900803 6818532 7342115
3014 8156950 6916976 7204297
3015 8235868 6678473 7175646
3016 8057693 6877428 7102220
3017 8283160 6599199 7110763
3018 8048665 6836144 7144132
3019 8287555 6763543 7126269
3020 8050976 6768843 7358836
3021 8038499 7035167 7331765
3022 8176404 6701951 7324177
3023 7954033 7115848 7473284
3024 8237800 6918020 7471694
3025 7907345 7045714 7570657
3026 8215609 7163059 7467865
3027 8159626 6992638 7489330
3028 8102442 7178827 7452394
3029 8219728 6888500 7503852
3030 7981332 7137304 7529853
3031 8281073 6953598 7447263
3032 8076543 6936973 7386444
3033 8227200 6978169 7181261
3034 8105054 6758430 7373106
3035 7951612 6897706 7282969
3036 8264718 6649340 7185734
3037 7974579 6918293 7320468
3038 8166824 6793730 7369205
3039 8037691 6830154 7281732
3040 8069694 6942442 7306289
3041 8173964 6819679 7395933
3042 8052150 7193178 7442818
3043 8307695 7066821 7574482
3044 8015822 7215581 7581129
3045 8365809 7337564 7601389
3046 8301246 7373392 7754193
3047 8233683 7570703 7732041
3048 8399794 7342239 7745415
3049 8232002 7669549 7746206
3050 8394319 7341911 7693010
3051 8101783 7285966 7629797
3052 8342440 7330517 7509922
3053 8298868 7010123 7384420
3054 8211743 7176431 7308186
3055 8489593 6917941 7227050
3056 8248817 7098900 7137777
3057 8509190 6847814 7084557
3058 8290862 6861771 7089457
3059 8326251 6899735 7025831
3060 8351596 6703554 7081962
3061 8077092 7015334 7270883
3062 8334938 6788061 7306584
3063 8097790 7141301 7379286
3064 8310820 7034846 7375936
3065 8223106 7078108 7454903
3066 8296443 7298687 7450627
3067 8319683 7016254 7452815
3068 8093040 7318372 7533655
3069 8226038 6957162 7558627
3070 7996973 7144091 7565815
3071 8186873 7032452 7456108
3072 8152445 6813081 7314835
3073 8181858 6886039 7082792
3074 8338444 6480416 6899425
3075 8042733 6531858 6800164
3076 8245821 6350980 6827231
3077 8044416 6384967 6804594
3078 8136649 6453211 6826165
3079 8110632 6248712 6837711
3080 7971953 6520853 6858285
3081 8171215 6300125 6915358
3082 7866349 6567812 7018287
3083 8050056 6507332 7133539
3084 7854380 6483721 7197260
3085 7982099 6686390 7167246
3086 8064855 6553788 7234537
3087 7912436 6820137 7243956
3088 8089937 6589847 7327781
3089 7769473 6696616 7341336
3090 8031109 6670549 7220790
3091 7941738 6522249 7237881
3092 7838927 6669272 7194267
3093 8069538 6357600 7083644
3094 7796500 6596297 7099752
3095 7982249 6231421 6988737
3096 7907402 6220896 6778628
3097 8087114 6197987 6695414
3098 7977474 6171968 6828084
3099 7875427 6364693 6813801
3100 8088152 6174568 6887614
3101 7851887 6445896 6899659
3102 8195079 6354636 6885066
3103 8000304 6551489 7061323
3104 7900960 6550393 7201236
3105 7862284 6359261 7227409
3106 7925870 6734800 7068967
3107 8084739 6473253 7166491
3108 7824190 6582723 7099337
3109 8082202 6498814 7032383
3110 7864737 6432570 7178016
3111 7858589 6484112 7030627
3112 7932185 6193549 7061366
3113 7703255 6390497 6934802
3114 8052863 6126142 6847727
3115 7875747 6268185 6754191
3116 8053568 6212328 6737166
3117 7878420 6134922 6875198
3118 7804446 6357975 6913355
3119 7960307 6014171 6854371
3120 7695968 6288019 6942021
3121 7944053 6090145 6839890
3122 7714087 6205414 6965176
3123 7889367 6481703 7046864
3124 7979167 6354493 7087328
3125 7917774 6683456 7128625
3126 8108709 6462651 7225868
3127 7749294 6665989 7220768
3128 7956983 6579209 7295915
3129 7877919 6505181 7147096
3130 8143534 6574600 6942109
3131 8097756 6195414 6953609
3132 7892135 6443678 6804820
3133 8176737 5983722 6644284
3134 7923808 6010824 6495612
3135 8014181 5766664 6378078
3136 7899673 5706564 6326749
3137 7979471 5882119 6210470
3138 8086911 5539222 6249485
3139 7757518 5795653 6304711
3140 7975674 5587898 6375700
3141 7835606 5792341 6352310
3142 8102508 5898557 6394659
3143 8167214 5931082 6440704
3144 8142932 6267598 6487310
3145 8317004 6168303 6699570
3146 8093429 6541134 6839093
3147 8245156 6475518 6989689
3148 8118440 6727075 7111131
3149 8381846 7003598 7081574
3150 8535082 6897274 7081859
3151 8421189 7277996 7153171
3152 8935527 7295687 7163056
3153 8936467 7692542 7085387
3154 9281597 7844169 7197219
3155 9220136 7845001 7226553
3156 9300528 8270091 7321718
3157 9703480 8402022 7558140
3158 9697661 9103697 7698702
3159 10145782 9203475 7795822
3160 10105142 9717990 8063647
3161 10455684 10256317 8367194
3162 10538102 10512705 8617324
3163 10612429 11198139 8925721
3164 10966805 11348491 9218012
3165 10909614 11967848 9370149
3166 11273100 12223576 9721287
3167 11097529 12588539 9992440
3168 11301296 12946213 10167408
3169 11429931 12872612 10224596
3170 11148644 13109306 10292615
3171 11211803 12665623 10292784
3172 10771149 12582489 10156284
3173 10745583 11904520 9850360
3174 10338741 11462631 9689579
3175 10064167 10983219 9301680
3176 9784086 9997825 9020840
3177 9350798 9666632 8582691
3178 9159244 8836627 8473488
3179 8498823 8379226 8241212
3180 8366979 7817747 8100678
3181 7845812 7276334 8102758
3182 7502140 7141996 7990952
3183 7469546 6740927 8093406
3184 7055033 6799421 8053090
3185 7211851 6361165 7878198
3186 7022707 6230018 7691736
3187 7087874 6104011 7504562
3188 7170546 5986598 7526117
3189 7085115 6277458 7488502
3190 7329549 5958066 7501459
3191 7095576 6220225 7440051
3192 7524162 6004525 7206711
3193 7246686 5800541 7151517
3194 7295470 6038522 7213874
3195 7328581 5672519 7137684
3196 7185995 5881994 6986478
3197 7572399 5616006 6828950
3198 7394166 5851666 6846342
3199 7623953 5882225 6878938
3200 7578621 5997113 6984430
3201 7636967 6261554 7021553
3202 7873257 6130219 7054387
3203 7733285 6537975 7109428
3204 7925706 6415433 7249156
3205 7826916 6742299 7365625
3206 7988379 6864332 7409875
3207 7912111 6627512 7382188
3208 7859493 6832616 7367420
3209 8108907 6598060 7319556
3210 7798585 6812760 7359317
3211 7980490 6485930 7218089
3212 7868133 6481642 7109186
3213 7925740 6343866 6947924
3214 7920693 6071770 6886709
3215 7718311 6273880 6898493
3216 7941673 5973460 6867118
3217 7708321 6210689 6853224
3218 8040894 6134097 6774396
3219 7919862 6126481 6776111
3220 7979864 6346924 6775277
3221 8221629 6146077 6756431
3222 7915387 6423802 6819953
3223 8121075 6344261 6996782
3224 7876380 6471710 7026138
3225 7977596 6501771 7099592
3226 7866916 6445744 7217244
3227 7851116 6652686 7157757
3228 8058794 6351760 7140074
3229 7862497 6618517 7095179
3230 8175395 6461655 7019919
3231 7910116 6438601 7080544
3232 8025188 6529023 6998992
3233 8091010 6234962 6882573
3234 7989036 6442696 6781120
3235 8111707 6041849 6737012
3236 7845308 6232064 6765422
3237 8042085 6131217 6765549
3238 7819117 6136269 6868025
3239 7931423 6269045 6748092
3240 7984749 6078218 6857198
3241 7867594 6427083 6850057
3242 8133124 6185243 6878719
3243 7772716 6413583 7014081
3244 7990679 6442134 7069774
3245 7955255 6488362 7104089
3246 8027850 6759691 7139111
3247 8044919 6489866 7253347
3248 7841556 6743992 7215610
3249 8147309 6417886 7045614
3250 7873467 6642254 7187201
3251 8089146 6606118 7055299
3252 8095447 6442817 7067646
3253 7939863 6522457 6919366
3254 8106240 6152416 6791907
3255 7916196 6271522 6666228
3256 8100289 6013284 6609465
3257 7950445 6064222 6642359
3258 8087117 6246675 6634867
3259 8066436 6019125 6717299
3260 7943772 6421752 6769261
3261 8109986 6176011 6892923
3262 7885473 6429114 6881924
3263 8190186 6570831 6975499
3264 8111027 6574594 7071713
3265 8182876 6899547 7074400
3266 8366321 6720493 7152041
3267 8035052 6889286 7158608
3268 8294415 6701945 7231581
3269 7976499 6793618 7335664
3270 8108804 6786523 7219872
3271 8211849 6663688 7167194
3272 8158454 6887351 7066103
3273 8337478 6432753 6952630
3274 8030819 6635702 6951892
3275 8316398 6415542 6813086
3276 8120863 6421571 6825056
3277 8279772 6579445 6723047
3278 8337862 6277368 6721113
3279 8195890 6512877 6639743
3280 8330120 6220608 6728894
3281 7952420 6461882 6877844
3282 8169612 6538821 6954411
3283 8128962 6654704 7090779
3284 8257218 6940413 7163758
3285 8360673 6810409 7260909
3286 8119942 7180171 7325652
3287 8501970 6934277 7190674
3288 8216798 7094277 7297609
3289 8352239 7086187 7272925
3290 8495438 6894280 7092113
3291 8327376 7065290 7069188
3292 8506632 6797837 7111642
3293 8294064 6874324 6917754
3294 8363800 6661590 6995870
3295 8200804 6528874 6888831
3296 8295424 6682166 6883599
3297 8323847 6455790 6898482
3298 8240242 6753161 6807987
3299 8454721 6511762 6846850
3300 8157978 6728223 6900038
3301 8537435 6753016 6905302
3302 8352460 6763678 7012685
3303 8403076 7045992 7111058
3304 8480166 6952601 7260480
3305 8261116 7267462 7313121
3306 8590387 7129728 7303472
3307 8392838 7259315 7295725
3308 8655520 7409888 7274574
3309 8609853 7328188 7403515
3310 8473175 7510712 7349334
3311 8662781 7132165 7300702
3312 8435051 7339208 7199894
3313 8627441 7072118 7154446
3314 8412178 6987700 7109367
3315 8569964 7101000 7052331
3316 8596911 6808611 6980749
3317 8483726 7066219 6908533
3318 8624301 6748985 6982345
3319 8370375 6946118 6979448
3320 8688729 7026190 6963929
3321 8697053 7092217 6989123
3322 8570096 7363071 7201136
3323 8840538 7297713 7233848
3324 8654180 7581510 7198865
3325 8897212 7406697 7306188
3326 8622481 7579380 7422972
3327 8737486 7676923 7484661
3328 8698604 7620469 7550030
3329 8657775 7813869 7483853
3330 8970812 7461157 7288386
3331 8596384 7660776 7344490
3332 8934788 7545703 7308575
3333 8747643 7484019 7243993
3334 8825353 7447550 7122177
3335 8820830 7134303 7085669
3336 8601588 7314240 7080942
3337 8970361 7139268 7012432
3338 8602173 7343756 7107336
3339 8913375 7301863 7136873
3340 8796410 7338737 7116679
3341 8963604 7606812 7078378
3342 8857535 7426554 7388989
3343 8636166 7801832 7463095
3344 8916968 7684610 7567909
3345 8734770 7861713 7541868
3346 8958844 7842429 7439512
3347 8967053 7710835 7458905
3348 8848628 7999596 7541080
3349 8958377 7677818 7535631
3350 8725431 7922216 7541820
3351 8883494 7687937 7555843
3352 8772084 7737269 7488512
3353 8920341 7650075 7298870
3354 8887668 7428194 7272329
3355 8712944 7562239 7212306
3356 8886163 7222512 7124220
3357 8741627 7441962 7028214
3358 8885907 7320769 7128507
3359 8668485 7320565 7204102
3360 8734626 7517642 7239422
3361 8747502 7288909 7326575
3362 8557500 7590268 7351491
3363 8820312 7475057 7422310
3364 8583855 7736482 7507383
3365 8892290 7793598 7505689
3366 8761278 7731067 7614349
3367 8692056 7956293 7638449
3368 8840502 7718254 7690429
3369 8640762 7963553 7653979
3370 8834527 7697108 7577844
3371 8715748 7809737 7548284
3372 8808535 7866770 7562709
3373 8727974 7517328 7482720
3374 8549953 7655299 7462222
3375 8666115 7209157 7372924
3376 8359890 7322893 7365776
3377 8634730 7271265 7350840
3378 8557690 7245023 7227215
3379 8634359 7305425 7108050
3380 8866569 7166026 7051104
3381 8615555 7462314 7152278
3382 8678587 7191703 7297635
3383 8506820 7565830 7495182
3384 8669342 7530787 7487093
3385 8429371 7491370 7685576
3386 8350931 7689434 7717383
3387 8530890 7376401 7632758
3388 8263080 7549722 7598822
3389 8578540 7451263 7659286
3390 8452876 7619011 7614381
3391 8579067 7581890 7540882
3392 8495666 7340830 7527647
3393 8406470 7453976 7402689
3394 8556900 7098625 7360371
3395 8178480 7112967 7282342
3396 8414401 6873388 7181768
3397 8272313 6945757 7200479
3398 8424740 7081250 7153797
3399 8428639 6795261 7137300
3400 8237479 7121537 7191443
3401 8502014 6869344 7186873
3402 8314035 7213325 7244707
3403 8613309 7303597 7397611
3404 8397843 7336317 7540876
3405 8402876 7532581 7536880
3406 8455427 7271180 7612126
3407 8173901 7507964 7644284
3408 8395016 7400757 7738766
3409 8274145 7623572 7734465
3410 8402911 7537187 7743975
3411 8315881 7290161 7618329
3412 8275946 7359530 7404830
3413 8397465 6943194 7365730
3414 8072186 7243667 7484286
3415 8258898 6800218 7313504
3416 7922227 6813834 7391688
3417 7995602 6843771 7367281
3418 8248255 6517286 6974751
3419 8241573 6953367 6997174
3420 8655630 6819805 6963669
3421 8302167 7078076 7174054
3422 8404487 6952490 7237039
3423 8211402 7024183 7406180
3424 8230604 7289338 7493465
3425 8305790 7189806 7644598
3426 8099012 7427657 7624928
3427 8343104 7179248 7629797
3428 8125335 7396424 7672505
3429 8280106 7251878 7593234
3430 8168053 7086772 7533374
3431 8033515 7270504 7598446
3432 8112635 6971566 7653051
3433 8003954 7127065 7435261
3434 8290430 6824323 7323590
3435 8043119 6895224 7307062
3436 8226601 6839274 7196234
3437 8207066 6740211 7252398
3438 8034492 6952487 7248296
3439 8243824 6588819 7160590
3440 7984633 6904750 7280542
3441 8210717 6718140 7245780
3442 7977330 6792319 7270181
3443 8114389 6977387 7335197
3444 8165061 6919201 7489035
3445 8044016 7293290 7502298
3446 8285283 7003707 7535878
3447 7987925 7294566 7617196
3448 8269331 7206707 7644658
3449 8050582 7243271 7706354
3450 8120779 7323132 7582378
3451 8192048 7067692 7601067
3452 8007464 7249700 7532232
3453 8284890 6919075 7431990
3454 8033477 6966513 7319021
3455 8203334 6748130 7193733
3456 8055411 6613588 7161518
3457 8123820 6841993 7054839
3458 8300289 6599680 7139770
3459 8020210 6924619 7218325
3460 8286573 6687715 7232417
3461 8063783 6948444 7281206
3462 8207494 7011528 7352004
3463 8122928 7014669 7514820
3464 8159220 7376433 7561802
3465 8327613 7189146 7666487
3466 8162036 7550139 7709881
3467 8290553 7358756 7816028
3468 7918685 7332960 7908465
3469 8237713 7409367 7674504
3470 8302287 7065964 7559166
3471 8013567 7273435 7575505
3472 8266314 6906804 7483496
3473 7896375 7047405 7486922
3474 8256789 6934276 7347721
3475 8141520 6788515 7208584
3476 8140618 6896812 7167288
3477 8160064 6650921 7244055
3478 7976678 6940399 7270278
3479 8227286 6631515 7232922
3480 7948066 6839133 7319499
3481 8235980 6888225 7281307
3482 8128491 6876011 7397729
3483 8108815 7207698 7518982
3484 8167859 7020022 7611961
3485 7985221 7419954 7682269
3486 8178856 7281939 7827145
3487 7962804 7366434 7812227
3488 8169012 7439152 7811833
3489 8025711 7231027 7903442
3490 7950969 7353733 7765320
3491 8112773 6954387 7699143
3492 8018170 7281725 7551796
3493 8318297 7009409 7434307
3494 8122133 7030988 7444611
3495 8220023 6973458 7266761
3496 8213493 6686841 7223510
3497 8002831 6922583 7255061
3498 8202276 6736271 7385040
3499 7920467 7007845 7479506
3500 8215902 6838878 7323364
3501 8099623 6848257 7344257
3502 8169765 7091627 7358022
3503 8172927 6902584 7542069
3504 7994825 7268261 7629194
3505 8100163 7023912 7726352
3506 7918919 7357490 7786765
3507 8222479 7397676 7768298
3508 8203607 7364511 7762176
3509 8162264 7499239 7737810
3510 8163662 7160008 7758714
3511 7932959 7356358 7706995
3512 8184726 7149696 7689154
3513 7971998 7063225 7515613
3514 8133229 7009801 7396651
3515 8139821 6855822 7406698
3516 8086703 7047077 7323849
3517 8327472 6759878 7314838
3518 8025387 6973388 7286703
3519 8277255 6813822 7237997
3520 7999868 6798073 7343606
3521 8054965 7010698 7360556
3522 8119543 6843575 7486715
3523 8030384 7243047 7529466
3524 8250771 7112998 7681608
3525 7913724 7379096 7870664
3526 8084147 7368539 7827269
3527 7984241 7248605 7910468
3528 8011590 7483302 7858611
3529 8108649 7161308 7870157
3530 7865551 7396986 7790844
3531 8138135 7167327 7780524
3532 7909748 7137779 7672746
3533 8056345 7047123 7500329
3534 8073685 6893954 7450007
3535 8031104 7076508 7388727
3536 8208455 6711681 7348007
3537 7906341 6981010 7410842
3538 8134669 6827563 7409663
3539 8008283 6846590 7366142
3540 8225224 6962148 7211809
3541 8354907 6762447 7144886
3542 8177112 7094228 7262649
3543 8203452 6883785 7480067
3544 8054780 7217029 7523534
3545 8311016 7209160 7585677
3546 8202502 7203112 7611958
3547 8298173 7361001 7478932
3548 8365352 7139671 7558235
3549 7916993 7363742 7685375
3550 8175407 7042385 7653739
3551 7969556 7186718 7650655
3552 8162428 7123509 7514248
3553 8036024 6828674 7445488
3554 7939019 6997530 7424230
3555 8138524 6781685 7403256
3556 7872980 6945519 7369803
3557 8107609 6815026 7430247
3558 7973192 6898683 7441467
3559 8114865 6931613 7315016
3560 8178914 6735728 7308166
3561 8068025 7101497 7393902
3562 8301401 6805418 7362664
3563 8007318 7041972 7434385
3564 8268083 7082876 7419945
3565 8171508 7174773 7621226
3566 8273685 7409463 7577562
3567 8229936 7115811 7719238
3568 7998516 7402762 7661502
3569 8366831 7184147 7566838
3570 8138076 7236972 7544689
3571 8237212 7278313 7663474
3572 8154035 7088733 7629585
3573 8105118 7230482 7427112
3574 8260743 6854185 7399200
3575 7977526 7055282 7388085
3576 8201152 6820362 7338911
3577 8008966 6846979 7339033
3578 7964679 6840351 7368456
3579 7910797 6664489 7508687
3580 7912416 6968181 7399467
3581 8296631 6776713 7337595
3582 7950872 7088448 7495860
3583 8145834 7025327 7611726
3584 7970381 7071529 7728942
3585 7974472 7209682 7734160
3586 8114554 7105057 7841986
3587 7947816 7429693 7769989
3588 8323369 7153687 7666756
3589 8053161 7247619 7629117
3590 8254707 7225154 7549167
3591 8224556 7130073 7601185
3592 8045374 7383451 7686440
3593 8076128 6959945 7660063
3594 7779144 7061336 7603556
3595 8015971 6764816 7505279
3596 7919469 6870297 7396052
3597 8227345 6947833 7236676
3598 8193433 6747436 7306891
3599 7922244 6926846 7330810
3600 8155298 6684022 7398041
3601 7891356 6939340 7383579
3602 8168015 6872297 7437740
3603 8019373 6976480 7508395
3604 8027107 7116753 7587161
3605 8087549 7061980 7696518
3606 8014774 7437905 7753511
3607 8190541 7172537 7760241
3608 7915462 7250429 7785522
3609 8083787 7166606 7754085
3610 7880912 7038423 7740701
3611 7890478 7233987 7697555
3612 8119741 6985654 7619191
3613 8093002 7175545 7420823
3614 8263376 6871002 7370891
3615 7947450 6894101 7387248
3616 8175624 6875559 7234877
3617 8151516 6678319 7272977
3618 7977484 6930827 7298534
3619 8139272 6684750 7369359
3620 7802842 6917861 7466014
3621 8045339 6801118 7436999
3622 7884241 6844198 7517615
3623 7969234 7057796 7560287
3624 8099494 6901775 7611233
3625 7968589 7335720 7649459
3626 8337893 7221610 7684447
3627 8008866 7385952 7724345
3628 8269140 7390935 7765907
3629 8108897 7340078 7858613
3630 7925722 7476186 7933942
3631 8084455 7216868 7958226
3632 7889899 7386090 7784476
3633 8138739 7084030 7703298
3634 7843507 7155650 7704886
3635 8021639 7124041 7675582
3636 7883608 6796537 7590180
3637 7883258 7025590 7507456
3638 8115340 6760906 7512950
3639 7913019 7145406 7534745
3640 8120631 7003774 7612046
3641 7914076 7016759 7622616
3642 8026766 7223412 7704365
3643 8002794 7054357 7780623
3644 7913414 7523753 7928684
3645 8222662 7334818 7962418
3646 7956652 7617425 8037614
3647 8093342 7391611 7997260
3648 7967945 7413173 8000661
3649 8062440 7590218 7975355
3650 8056617 7273649 8026462
3651 7735172 7500470 8095502
3652 8112354 7224372 7902184
3653 7884430 7314898 7789718
3654 8093911 7134100 7632353
3655 8061491 6962895 7573593
3656 7956490 7084442 7517228
3657 8185456 6808787 7380345
3658 7991557 7083862 7404836
3659 8186810 6980735 7548250
3660 7875759 7111359 7736972
3661 7995616 7260809 7828432
3662 8071713 7218046 7867765
3663 7986425 7559650 7942226
3664 8366365 7448269 7918968
3665 8193597 7792386 7941921
3666 8488030 7817731 8084048
3667 8281482 7807517 8040364
3668 8279942 7929582 8054517
3669 8300369 7642126 8110481
3670 8149024 7926169 8094070
3671 8421623 7669492 8105941
3672 8222427 7947193 8100715
3673 8373624 7748790 8014344
3674 8162289 7588296 8012492
3675 8183248 7645968 7821193
3676 8432303 7294159 7617955
3677 8259509 7592311 7641329
3678 8460102 7236642 7574920
3679 8202713 7377169 7585455
3680 8347836 7411086 7602673
3681 8337554 7237990 7640731
3682 8252698 7562840 7640262
3683 8453813 7295128 7695763
3684 8169937 7566120 7778723
3685 8297011 7436890 7824962
3686 8204604 7519395 7896095
3687 8275014 7652857 7883329
3688 8364786 7587397 7927960
3689 8281038 7825073 7877797
3690 8404765 7432637 7863012
3691 8074037 7534614 7798613
3692 8272663 7384863 7749544
3693 8147933 7299842 7714493
3694 8271985 7365356 7534708
3695 8392142 7042954 7435931
3696 8114242 7194944 7368963
3697 8354374 6931132 7398563
3698 8003124 7036915 7462608
3699 8183017 7068503 7503872
3700 8029671 6944806 7571194
3701 8018881 7262810 7608107
3702 8079479 6934459 7682899
3703 7806712 7210646 7769765
3704 8113922 7131490 7792958
3705 7950939 7353936 7851481
3706 8161296 7496055 7829317
3707 8125400 7299620 7919942
3708 7970741 7463212 7865965
3709 8230724 7153816 7744632
3710 7958648 7290766 7701718
3711 8244654 7157333 7605411
3712 8022002 7054543 7550043
3713 8039587 7063553 7463302
3714 7931528 6737493 7564265
3715 7840763 6989936 7414773
3716 8131757 6703520 7394931
3717 7917629 6923237 7380530
3718 8052034 6756788 7348824
3719 7969302 6731707 7377060
3720 7943519 6970276 7437656
3721 8130037 6766570 7463909
3722 7901177 7081885 7496414
3723 8141193 7017825 7634119
3724 8001586 7262662 7681348
3725 8305956 7320346 7617381
3726 8115928 7235505 7843145
3727 8004048 7445205 7810295
3728 8194265 7244250 7870342
3729 7997095 7494202 7863235
3730 8219685 7339381 7864066
3731 8084709 7323313 7801645
3732 8133619 7281157 7652624
3733 8127524 6983949 7580024
3734 7926547 7151564 7545066
3735 8112494 6844497 7475104
3736 7847948 6944248 7442341
3737 8171699 6905469 7399360
3738 8015649 6837111 7378668
3739 8000713 6984078 7395042
3740 8208548 6666410 7270730
3741 7930218 7066258 7458535
3742 8076632 6898880 7643558
3743 7750477 7086346 7700173
3744 8200268 7223267 7553296
3745 8181808 7178646 7728148
3746 8099901 7559912 7860768
3747 8257146 7312652 7882450
3748 8020326 7576624 7854489
3749 8188058 7349215 7885312
3750 7995836 7324710 7819604
3751 8105867 7338943 7745418
3752 8036481 7029158 7680732
3753 7944563 7159632 7575643
3754 8121156 6853540 7497518
3755 7925682 7000912 7484350
3756 8059943 6805979 7375644
3757 7941899 6659442 7288968
3758 8034793 6709937 7121356
3759 8108676 6482550 7182843
3760 7888349 6689436 7159597
3761 8149763 6476088 7078824
3762 8158470 6688187 6979444
3763 8174764 6711994 7087842
3764 8095145 6664213 7206555
3765 8188649 6936223 7109802
3766 8396939 6822650 7274422
3767 8038700 7092189 7368406
3768 8243477 6985189 7477826
3769 8071425 7058608 7564123
3770 8196100 7176523 7487024
3771 8297780 7072330 7490692
3772 8250934 7360512 7417074
3773 8549203 7146121 7385563
3774 8357215 7314534 7356765
3775 8648006 7374494 7408217
3776 8637178 7489764 7480812
3777 8885267 7853786 7358388
3778 9166808 7795388 7369365
3779 9158068 8336114 7455767
3780 9610533 8363412 7578745
3781 9685217 8973763 7704883
3782 9991334 9406049 7984798
3783 10016289 9703871 8309800
3784 10316428 10478398 8528747
3785 10667449 10632216 8761478
3786 10674990 11370843 9050970
3787 11059812 11547078 9313055
3788 10941647 12143415 9609247
3789 11289876 12575630 9796771
3790 11436921 12736921 9972452
3791 11549520 13314179 10116849
3792 11762848 13283332 10313716
3793 11585404 13782831 10525349
3794 11843633 13656992 10535221
3795 11673835 13663209 10580453
3796 11534276 13581804 10566497
3797 11388068 13021450 10360103
3798 10971857 12996417 10319613
3799 10884313 12412133 10311261
3800 10367453 12133590 10145901
3801 10217805 11672499 10105377
3802 9793666 11229615 10012111
3803 9588878 10854242 9705169
3804 9265743 9985604 9487374
3805 8735541 9708258 9308628
3806 8648778 9113227 9311165
3807 7993297 8989625 9440121
3808 7840149 8642912 9358771
3809 7600046 8132727 9229124
3810 7384331 8082463 8996902
3811 7530441 7388155 8695928
3812 7060864 7184328 8449896
3813 7320537 6832983 8273054
3814 7128698 6819465 8191418
3815 7417232 6730473 7818220
3816 7311856 6449067 7841515
3817 7262935 6670137 7787280
3818 7520747 6480605 7734417
3819 7329884 6714567 7728269
3820 7650686 6762178 7736872
3821 7542729 6887226 7905250
3822 7637011 7216373 7992491
3823 7619558 7036291 8165039
3824 7590507 7465521 8156109
3825 7962078 7392017 8241916
3826 7903135 7723360 8228778
3827 8153214 7748692 8212629
3828 8066476 7637311 8236592
3829 7938751 7899803 8288711
3830 8093761 7526144 8249791
3831 8005286 7742538 8051966
3832 8284981 7475292 7955227
3833 8028927 7414144 7916707
3834 8175704 7459468 7815281
3835 8125592 7152119 7726865
3836 7985466 7349575 7666830
3837 8189831 6992132 7640673
3838 7876269 7195535 7633584
3839 8200704 7084030 7583385
3840 7993922 7002369 7514158
3841 8154197 7163930 7500446
3842 8260659 7081175 7593195
3843 8021759 7385361 7664520
3844 8268264 7309335 7828786
3845 7992421 7591569 7971380
3846 8206402 7603929 7977775
3847 8102046 7563633 8131751
3848 8026239 7648303 8047191
3849 8254680 7418140 7922696
3850 8044003 7740844 8010234
3851 8270816 7408903 7909019
3852 8124429 7397233 7722390
3853 8257463 7320582 7627167
3854 8187613 7100303 7623096
3855 8030705 7283612 7550580
3856 8151601 6961708 7651313
3857 7988471 7166693 7556504
3858 8296360 7063871 7496330
3859 8136651 7046297 7480762
3860 8235439 7176237 7426299
3861 8141890 6965180 7565509
3862 8087597 7324352 7514094
3863 8321394 7111072 7595049
3864 8051606 7447081 7779063
3865 8254385 7421104 7800235
3866 8155719 7473696 7886758
3867 8148300 7702196 7921701
3868 8338457 7460200 7929561
3869 7991049 7695109 7992602
3870 8259267 7524622 7992111
3871 8063024 7599837 7991371
3872 8160742 7585579 7924792
3873 8098066 7340115 7927131
3874 8027702 7342306 7655109
3875 8124476 7024561 7722142
3876 7810184 7043168 7597998
3877 8179463 6909595 7474971
3878 7881098 6969644 7586105
3879 8018034 7175555 7629791
3880 8104499 7067594 7684203
3881 8064013 7413806 7681611
3882 8284962 7178149 7712666
3883 8182568 7453651 7632517
3884 8492217 7477340 7683911
3885 8319804 7527914 7780220
3886 8392307 7774241 7810107
3887 8451107 7555275 7921126
3888 8201787 7853691 7975003
3889 8465120 7547749 7909615
3890 8210347 7763531 7901551
3891 8366662 7708671 7930975
3892 8253831 7554335 7964275
3893 8319752 7808989 7849025
3894 8469605 7391643 7730058
3895 8285226 7537485 7616674
3896 8424654 7189603 7562920
3897 8205036 7346980 7586087
3898 8336076 7319352 7577112
3899 8348010 7243140 7573254
3900 8367092 7532718 7510073
3901 8539162 7269147 7505465
3902 8351554 7616995 7592687
3903 8546176 7561434 7723282
3904 8223156 7716227 7957145
3905 8316098 7870265 7995203
3906 8486710 7790492 8035050
3907 8398667 8145142 8021591
3908 8614449 7866239 8098626
3909 8388945 8102324 8060108
3910 8660668 7952776 7979727
3911 8426282 7887053 8048081
3912 8372019 7919383 8015145
3913 8531170 7729322 7963807
3914 8438916 7952992 7821362
3915 8627800 7646229 7800575
3916 8302240 7762033 7829072
3917 8444704 7535783 7774932
3918 8333421 7444249 7705935
3919 8403211 7731005 7679655
3920 8603533 7532383 7721257
3921 8268828 7762854 7776663
3922 8463495 7618356 7887847
3923 8298117 7764413 7958056
3924 8506343 8062689 8068481
3925 8416673 7980202 8247897
3926 8463783 8378722 8307361
3927 8637543 8202880 8371422
3928 8518508 8505466 8311077
3929 8777140 8318089 8285116
3930 8566794 8387319 8299843
3931 8752043 8413688 8201482
3932 8715440 8090190 8121517
3933 8528468 8254368 8034463
3934 8753736 7915947 7983131
3935 8526138 8065283 7854404
3936 8764608 7832708 7724379
3937 8667855 7785159 7720615
3938 8710920 8030024 7760906
3939 8813948 7895468 7891369
3940 8703795 8188788 7763382
3941 8783197 7843648 7880516
3942 8543121 8169853 7951277
3943 8949997 8269637 7952777
3944 8744816 8228813 8147294
3945 8753002 8426390 8080869
3946 8923112 8268280 8131893
3947 8732064 8650306 8223400
3948 9012948 8466416 8260829
3949 8734678 8634976 8358751
3950 8930817 8658765 8324468
3951 8898874 8494961 8263404
3952 8883308 8685986 8155594
3953 9106274 8378833 8120813
3954 8771051 8517134 8093664
3955 9006634 8386894 8108475
3956 8894575 8347973 7921472
3957 8953155 8336036 7880889
3958 8863402 8107586 8010019
3959 8730021 8376308 8020188
3960 8927940 8220420 8081413
3961 8588627 8430182 8143999
3962 9084437 8370275 8018864
3963 8869147 8491205 8215599
3964 8903047 8760997 8307267
3965 9105977 8575124 8227916
3966 9029760 8969272 8262059
3967 9186355 8769062 8413277
3968 8961111 9028294 8396108
3969 9109780 8902869 8446031
3970 8996200 8863038 8475975
3971 8959183 8957297 8441102
3972 8953232 8601321 8449886
3973 8946461 8859078 8179686
3974 9217701 8459458 8051354
3975 8862194 8570878 8100570
3976 9036297 8482278 8049068
3977 8987663 8406909 8037076
3978 9113330 8558735 7824694
3979 9196225 8347390 8022254
3980 8887318 8575787 8014969
3981 9178498 8444997 8036138
3982 8899499 8567316 8159635
3983 9105231 8699154 8180970
3984 9022366 8741200 8401637
3985 8893608 9016697 8426930
3986 9125069 8802455 8488484
3987 8894798 9096120 8565526
3988 9161775 9012359 8607097
3989 8933032 9091873 8641834
3990 9102020 9187627 8599158
3991 9111835 8926807 8584877
3992 8923419 9058973 8473672
3993 9103342 8669759 8388250
3994 8712246 8687743 8339190
3995 8981483 8569055 8270504
3996 8865773 8469372 8163394
3997 8838090 8584621 8182124
3998 8949948 8398490 8193628
3999 8781785 8634311 8172187
4000 8994554 8331893 8182951
4001 8602858 8413856 8247521
4002 8924633 8524327 8222428
4003 8896769 8504248 8234504
4004 8945775 8851023 8312942
4005 9095071 8589320 8311033
4006 8809536 8935830 8374690
4007 9046145 8726614 8481208
4008 8793160 8887907 8491213
4009 8913938 8891054 8544266
4010 8726482 8671707 8586934
4011 8662617 8829936 8491383
4012 8890237 8489955 8434944
4013 8680983 8738894 8351455
4014 8877681 8428076 8311193
4015 8654772 8428278 8250375
4016 8729388 8379833 8169129
4017 8800917 8088576 8049308
4018 8686796 8383757 8071162
4019 8763028 8111894 8086287
4020 8467975 8263520 8154435
4021 8639143 8167260 8217958
4022 8475340 8159684 8267194
4023 8485436 8286229 8234656
4024 8680711 8235026 8317593
4025 8487190 8573561 8361450
4026 8723938 8392290 8423749
4027 8489956 8640518 8511455
4028 8622879 8605048 8525810
4029 8546361 8504619 8614808
4030 8471967 8587447 8483055
4031 8783023 8390313 8448120
4032 8446563 8498826 8369624
4033 8741864 8305755 8261082
4034 8475982 8208229 8130839
4035 8661787 8202618 8128727
4036 8524828 7985686 8162752
4037 8379039 8089292 8039333
4038 8601855 7799328 8004545
4039 8361621 7995076 7983736
4040 8594647 7801153 7923242
4041 8385683 7888817 8046520
4042 8484484 8131230 8150027
4043 8413137 7895546 8260956
4044 8256067 8250585 8324422
4045 8544639 8001151 8248153
4046 8453537 8391041 8291128
4047 8665661 8399761 8350684
4048 8534981 8421995 8441006
4049 8454936 8601114 8526721
4050 8546526 8286434 8550111
4051 8467843 8573407 8424315
4052 8583162 8265575 8455970
4053 8275011 8294510 8437069
4054 8414293 8081341 8250725
4055 8418261 7928385 8182271
4056 8323975 8069851 8118506
4057 8468041 7704019 8045688
4058 8259189 8020707 8045566
4059 8553831 7835550 8014766
4060 8405368 7839436 7954347
4061 8428562 7904332 7974136
4062 8436579 7820124 8089782
4063 8322842 8116513 8138630
4064 8583275 8018552 8290449
4065 8289489 8292531 8368689
4066 8542177 8245078 8419711
4067 8370625 8401322 8569908
4068 8391554 8408599 8467593
4069 8530581 8153745 8386463
4070 8340770 8522822 8494812
4071 8537900 8247155 8523592
4072 8220473 8297919 8432586
4073 8482135 8185376 8245541
4074 8393201 7959400 8167478
4075 8325121 8144140 8200668
4076 8373652 7739619 8132374
4077 8272478 7991511 8035921
4078 8515059 7722283 8043224
4079 8174627 7868152 8115270
4080 8377208 7857890 8102629
4081 8337998 7807415 8116567
4082 8342222 8162987 8169297
4083 8615099 7934470 8153096
4084 8362493 8236910 8231112
4085 8535169 8018233 8296999
4086 8474362 8320834 8347115
4087 8517008 8466181 8445706
4088 8603963 8325424 8447343
4089 8362996 8594477 8600926
4090 8531737 8348523 8602080
4091 8283973 8529461 8551401
4092 8377258 8207073 8554905
4093 8296688 8232905 8505009
4094 8414279 8200701 8235281
4095 8374641 7858239 8310847
4096 8248268 8114124 8152689
4097 8515256 7818625 8111135
4098 8266320 7959741 8067072
4099 8515461 7938855 7989906
4100 8523893 7857997 8001112
4101 8490512 8114988 8004406
4102 8792490 7977757 8002166
4103 8332029 8290637 8260963
4104 8528625 8211486 8431960
4105 8251211 8378697 8596293
4106 8535640 8514261 8484525
4107 8575112 8449103 8529383
4108 8339834 8644975 8580443
4109 8589681 8373926 8606031
4110 8272360 8707196 8753358
4111 8432618 8545164 8765026
4112 8304648 8435480 8619662
4113 8410194 8451514 8470785
4114 8507254 8066959 8310713
4115 8300005 8225359 8283759
4116 8237219 7798034 8333680
4117 8002320 7845091 8194453
4118 8304708 7789682 8064064
4119 8365262 7752475 8025315
4120 8404088 8143542 8067345
4121 8513644 7877453 8167874
4122 8345269 8132258 8131514
4123 8633886 8042317 8170476
4124 8298179 8284314 8443563
4125 8423901 8352205 8483586
4126 8507693 8328267 8547315
4127 8351286 8612917 8569335
4128 8510009 8257612 8577214
4129 8264057 8450677 8461315
4130 8553638 8318835 8460660
4131 8348161 8353568 8550730
4132 8350847 8382676 8483471
4133 8549781 8303617 8519209
4134 8264411 8264471 8304998
4135 8550435 8024918 8244626
4136 8341460 8216160 8225454
4137 8460423 7999169 8194637
4138 8344879 7950335 8221774
4139 8459622 8223942 8172083
4140 8476744 7907525 8256482
4141 8270404 8200761 8208065
4142 8558056 8070225 8301212
4143 8273327 8210477 8362237
4144 8453145 8263782 8417898
4145 8365906 8195700 8522374
4146 8286635 8551934 8628065
4147 8344263 8220654 8719902
4148 8167343 8509942 8658203
4149 8432368 8336344 8596010
4150 8411424 8457257 8530150
4151 8561289 8554027 8505409
4152 8469349 8267433 8524704
4153 8339195 8496676 8452781
4154 8529335 8000854 8268299
4155 8295760 8158071 8204410
4156 8502726 8011761 8200024
4157 8263193 7963253 8232399
4158 8400696 8084467 8127147
4159 8478954 7840251 8119143
4160 8234083 8103061 8189770
4161 8524456 7925354 8224577
4162 8175865 8077630 8319301
4163 8460507 8187752 8360224
